  20.0000         5
  20.0250         8
  20.0500        11
  20.0750        14
  20.1000         9
  20.1250         6
  20.1500         5
  20.1750         6
  20.2000        10
  20.2250        10
  20.2500         6
  20.2750         5
  20.3000        10
  20.3250         4
  20.3500        10
  20.3750         5
  20.4000         5
  20.4250        10
  20.4500         5
  20.4750        10
  20.5000         6
  20.5250        10
  20.5500         8
  20.5750         8
  20.6000        15
  20.6250        11
  20.6500         7
  20.6750         8
  20.7000         8
  20.7250        12
  20.7500        16
  20.7750         9
  20.8000        11
  20.8250         9
  20.8500        11
  20.8750         7
  20.9000        17
  20.9250         8
  20.9500        12
  20.9750        11
  21.0000        11
  21.0250         7
  21.0500        12
  21.0750        12
  21.1000        10
  21.1250         7
  21.1500         6
  21.1750        10
  21.2000        15
  21.2250         5
  21.2500         8
  21.2750         9
  21.3000        13
  21.3250         9
  21.3500         7
  21.3750        12
  21.4000        10
  21.4250        10
  21.4500         6
  21.4750         6
  21.5000         9
  21.5250        10
  21.5500         7
  21.5750        13
  21.6000        10
  21.6250        10
  21.6500        11
  21.6750        11
  21.7000         7
  21.7250         8
  21.7500         7
  21.7750        13
  21.8000         8
  21.8250         8
  21.8500         7
  21.8750        11
  21.9000         2
  21.9250        10
  21.9500         6
  21.9750         8
  22.0000        13
  22.0250         7
  22.0500         3
  22.0750         5
  22.1000        10
  22.1250        10
  22.1500        10
  22.1750        11
  22.2000         8
  22.2250        14
  22.2500         3
  22.2750         9
  22.3000         9
  22.3250         8
  22.3500        12
  22.3750        10
  22.4000         7
  22.4250         9
  22.4500         7
  22.4750         9
  22.5000        11
  22.5250         5
  22.5500         6
  22.5750         8
  22.6000         7
  22.6250         8
  22.6500         8
  22.6750        13
  22.7000         5
  22.7250        17
  22.7500        14
  22.7750        11
  22.8000        10
  22.8250         7
  22.8500        13
  22.8750        12
  22.9000        12
  22.9250        15
  22.9500         3
  22.9750        19
  23.0000        12
  23.0250        14
  23.0500        19
  23.0750        11
  23.1000        19
  23.1250        21
  23.1500        14
  23.1750        14
  23.2000        16
  23.2250        18
  23.2500        13
  23.2750        12
  23.3000        13
  23.3250        14
  23.3500        11
  23.3750         8
  23.4000        12
  23.4250        15
  23.4500        11
  23.4750         9
  23.5000        15
  23.5250        19
  23.5500        11
  23.5750        15
  23.6000        15
  23.6250        11
  23.6500        12
  23.6750        12
  23.7000        20
  23.7250        12
  23.7500         6
  23.7750        10
  23.8000         7
  23.8250        14
  23.8500         6
  23.8750         8
  23.9000         9
  23.9250        12
  23.9500         7
  23.9750         9
  24.0000        16
  24.0250         9
  24.0500        11
  24.0750         9
  24.1000         7
  24.1250         9
  24.1500         9
  24.1750        13
  24.2000        10
  24.2250        11
  24.2500        14
  24.2750         5
  24.3000        11
  24.3250        13
  24.3500        12
  24.3750        12
  24.4000        10
  24.4250        11
  24.4500        13
  24.4750         9
  24.5000        14
  24.5250         8
  24.5500        17
  24.5750        11
  24.6000        13
  24.6250        13
  24.6500        22
  24.6750         9
  24.7000        23
  24.7250        18
  24.7500        15
  24.7750        16
  24.8000        23
  24.8250        16
  24.8500        17
  24.8750        14
  24.9000        10
  24.9250        10
  24.9500        17
  24.9750        12
  25.0000         4
  25.0250        12
  25.0500         9
  25.0750        11
  25.1000        14
  25.1250        16
  25.1500        15
  25.1750        12
  25.2000         6
  25.2250         5
  25.2500        15
  25.2750        10
  25.3000         8
  25.3250         7
  25.3500         6
  25.3750        10
  25.4000        13
  25.4250         8
  25.4500        11
  25.4750        12
  25.5000        12
  25.5250        15
  25.5500        21
  25.5750        12
  25.6000        15
  25.6250        15
  25.6500        12
  25.6750        13
  25.7000        13
  25.7250         7
  25.7500        11
  25.7750        10
  25.8000         9
  25.8250        17
  25.8500         6
  25.8750         6
  25.9000        13
  25.9250         9
  25.9500         8
  25.9750        13
  26.0000        14
  26.0250        11
  26.0500        14
  26.0750        10
  26.1000         6
  26.1250        11
  26.1500        14
  26.1750        15
  26.2000        12
  26.2250         8
  26.2500        16
  26.2750        15
  26.3000        11
  26.3250         7
  26.3500        12
  26.3750         9
  26.4000        17
  26.4250        18
  26.4500        18
  26.4750        16
  26.5000         8
  26.5250        11
  26.5500        10
  26.5750        15
  26.6000        10
  26.6250        11
  26.6500        11
  26.6750        14
  26.7000        16
  26.7250        12
  26.7500        10
  26.7750        11
  26.8000        17
  26.8250        10
  26.8500        11
  26.8750        12
  26.9000        11
  26.9250        24
  26.9500        18
  26.9750        15
  27.0000        17
  27.0250        20
  27.0500        21
  27.0750        17
  27.1000        16
  27.1250        23
  27.1500        20
  27.1750        21
  27.2000        21
  27.2250        16
  27.2500        18
  27.2750        17
  27.3000        17
  27.3250        19
  27.3500        17
  27.3750        12
  27.4000        23
  27.4250        16
  27.4500        15
  27.4750        15
  27.5000        17
  27.5250        10
  27.5500        20
  27.5750        13
  27.6000        15
  27.6250        31
  27.6500         9
  27.6750         8
  27.7000        11
  27.7250        20
  27.7500        19
  27.7750        16
  27.8000        21
  27.8250        17
  27.8500        19
  27.8750        26
  27.9000        15
  27.9250        13
  27.9500        26
  27.9750        24
  28.0000        29
  28.0250         7
  28.0500        17
  28.0750        20
  28.1000        19
  28.1250        18
  28.1500        24
  28.1750        22
  28.2000        13
  28.2250        26
  28.2500        20
  28.2750        24
  28.3000        25
  28.3250        36
  28.3500        38
  28.3750        37
  28.4000        28
  28.4250        33
  28.4500        34
  28.4750        32
  28.5000        28
  28.5250        38
  28.5500        30
  28.5750        28
  28.6000        16
  28.6250        18
  28.6500        23
  28.6750        20
  28.7000        23
  28.7250        16
  28.7500        10
  28.7750        13
  28.8000        12
  28.8250        15
  28.8500         8
  28.8750        17
  28.9000        14
  28.9250        14
  28.9500        16
  28.9750         8
  29.0000         8
  29.0250        11
  29.0500        11
  29.0750        15
  29.1000        11
  29.1250        16
  29.1500         9
  29.1750        10
  29.2000        23
  29.2250        14
  29.2500        13
  29.2750        17
  29.3000        20
  29.3250        15
  29.3500        15
  29.3750         9
  29.4000        13
  29.4250        14
  29.4500        17
  29.4750        18
  29.5000        14
  29.5250        16
  29.5500         8
  29.5750        15
  29.6000         8
  29.6250        12
  29.6500        11
  29.6750        12
  29.7000        10
  29.7250        11
  29.7500        13
  29.7750         7
  29.8000        15
  29.8250        21
  29.8500        13
  29.8750        27
  29.9000        23
  29.9250        19
  29.9500        18
  29.9750        23
  30.0000        10
  30.0250        22
  30.0500        22
  30.0750        19
  30.1000        13
  30.1250        11
  30.1500        16
  30.1750        15
  30.2000        11
  30.2250        23
  30.2500        22
  30.2750        19
  30.3000        25
  30.3250        28
  30.3500        27
  30.3750        27
  30.4000        27
  30.4250        31
  30.4500        34
  30.4750        30
  30.5000        35
  30.5250        22
  30.5500        41
  30.5750        30
  30.6000        35
  30.6250        33
  30.6500        22
  30.6750        31
  30.7000        34
  30.7250        33
  30.7500        48
  30.7750        29
  30.8000        49
  30.8250        47
  30.8500        36
  30.8750        42
  30.9000        36
  30.9250        37
  30.9500        42
  30.9750        31
  31.0000        29
  31.0250        38
  31.0500        46
  31.0750        49
  31.1000        47
  31.1250        78
  31.1500        83
  31.1750        99
  31.2000       166
  31.2250       218
  31.2500       332
  31.2750       489
  31.3000       734
  31.3250      1072
  31.3500      1590
  31.3750      1871
  31.4000      1881
  31.4250      1840
  31.4500      1533
  31.4750      1236
  31.5000       812
  31.5250       590
  31.5500       331
  31.5750       212
  31.6000       119
  31.6250        88
  31.6500        73
  31.6750        53
  31.7000        36
  31.7250        42
  31.7500        37
  31.7750        34
  31.8000        35
  31.8250        29
  31.8500        26
  31.8750        27
  31.9000        36
  31.9250        28
  31.9500        22
  31.9750        34
  32.0000        30
  32.0250        24
  32.0500        24
  32.0750        23
  32.1000        27
  32.1250        25
  32.1500        24
  32.1750        20
  32.2000        22
  32.2250        18
  32.2500        19
  32.2750        30
  32.3000        21
  32.3250        27
  32.3500        21
  32.3750        21
  32.4000        19
  32.4250        18
  32.4500        21
  32.4750        26
  32.5000        13
  32.5250        12
  32.5500        14
  32.5750        14
  32.6000        17
  32.6250        10
  32.6500        11
  32.6750        20
  32.7000        15
  32.7250        18
  32.7500        16
  32.7750        21
  32.8000        13
  32.8250         7
  32.8500         9
  32.8750        18
  32.9000        20
  32.9250        17
  32.9500        12
  32.9750        14
  33.0000        16
  33.0250        17
  33.0500        20
  33.0750        16
  33.1000        18
  33.1250        25
  33.1500        14
  33.1750        13
  33.2000        12
  33.2250        17
  33.2500        19
  33.2750        15
  33.3000        21
  33.3250        12
  33.3500        15
  33.3750        19
  33.4000        11
  33.4250        19
  33.4500        13
  33.4750         6
  33.5000         7
  33.5250        15
  33.5500        18
  33.5750        17
  33.6000        14
  33.6250        17
  33.6500        20
  33.6750        13
  33.7000        12
  33.7250        12
  33.7500         8
  33.7750        14
  33.8000         9
  33.8250        13
  33.8500        11
  33.8750        15
  33.9000        12
  33.9250        17
  33.9500        13
  33.9750         9
  34.0000         7
  34.0250        17
  34.0500        20
  34.0750        16
  34.1000        14
  34.1250        18
  34.1500        15
  34.1750        14
  34.2000        17
  34.2250        22
  34.2500        18
  34.2750        18
  34.3000        20
  34.3250        18
  34.3500        19
  34.3750        16
  34.4000        19
  34.4250        20
  34.4500        13
  34.4750        18
  34.5000        12
  34.5250        21
  34.5500         7
  34.5750         5
  34.6000        14
  34.6250         9
  34.6500         7
  34.6750        11
  34.7000        12
  34.7250        23
  34.7500        15
  34.7750        18
  34.8000        24
  34.8250        11
  34.8500        12
  34.8750        12
  34.9000        18
  34.9250        16
  34.9500        10
  34.9750        13
  35.0000        12
  35.0250        12
  35.0500        16
  35.0750        18
  35.1000        15
  35.1250        17
  35.1500        16
  35.1750        13
  35.2000        20
  35.2250        15
  35.2500        18
  35.2750        18
  35.3000        20
  35.3250        17
  35.3500        13
  35.3750        17
  35.4000         8
  35.4250        21
  35.4500        14
  35.4750        15
  35.5000        14
  35.5250        21
  35.5500        18
  35.5750        16
  35.6000        10
  35.6250        14
  35.6500        15
  35.6750        12
  35.7000        15
  35.7250         9
  35.7500        17
  35.7750        24
  35.8000        13
  35.8250        19
  35.8500        15
  35.8750        15
  35.9000        13
  35.9250        20
  35.9500        21
  35.9750        15
  36.0000        16
  36.0250        18
  36.0500        27
  36.0750        30
  36.1000        40
  36.1250        34
  36.1500        52
  36.1750        84
  36.2000        97
  36.2250       128
  36.2500       190
  36.2750       273
  36.3000       397
  36.3250       544
  36.3500       641
  36.3750       691
  36.4000       691
  36.4250       664
  36.4500       617
  36.4750       451
  36.5000       367
  36.5250       277
  36.5500       183
  36.5750       106
  36.6000        76
  36.6250        64
  36.6500        43
  36.6750        36
  36.7000        19
  36.7250        21
  36.7500        30
  36.7750        19
  36.8000        15
  36.8250        13
  36.8500        12
  36.8750        21
  36.9000        18
  36.9250        16
  36.9500         8
  36.9750        18
  37.0000        18
  37.0250         9
  37.0500        12
  37.0750        11
  37.1000        19
  37.1250         8
  37.1500         9
  37.1750        10
  37.2000        12
  37.2250        10
  37.2500        12
  37.2750        10
  37.3000         5
  37.3250        13
  37.3500        10
  37.3750         9
  37.4000         7
  37.4250        12
  37.4500        14
  37.4750         8
  37.5000        14
  37.5250        12
  37.5500        11
  37.5750        11
  37.6000        18
  37.6250        13
  37.6500        10
  37.6750        11
  37.7000        10
  37.7250        10
  37.7500         9
  37.7750         8
  37.8000        10
  37.8250        12
  37.8500         6
  37.8750        11
  37.9000        15
  37.9250         8
  37.9500         6
  37.9750        13
  38.0000        12
  38.0250        13
  38.0500         6
  38.0750         5
  38.1000        13
  38.1250         4
  38.1500         9
  38.1750         7
  38.2000         3
  38.2250        13
  38.2500        12
  38.2750         9
  38.3000        14
  38.3250         9
  38.3500         3
  38.3750        10
  38.4000         6
  38.4250        13
  38.4500        11
  38.4750         5
  38.5000         7
  38.5250         7
  38.5500         6
  38.5750         9
  38.6000         7
  38.6250         7
  38.6500        13
  38.6750        10
  38.7000         6
  38.7250         9
  38.7500        10
  38.7750         6
  38.8000        11
  38.8250        18
  38.8500         5
  38.8750        11
  38.9000         8
  38.9250        13
  38.9500         7
  38.9750         8
  39.0000        10
  39.0250        15
  39.0500         7
  39.0750         9
  39.1000         6
  39.1250         9
  39.1500         2
  39.1750         5
  39.2000         9
  39.2250        13
  39.2500         8
  39.2750         8
  39.3000         4
  39.3250         8
  39.3500         7
  39.3750         6
  39.4000        12
  39.4250        16
  39.4500         8
  39.4750         5
  39.5000        11
  39.5250         6
  39.5500         4
  39.5750         9
  39.6000         5
  39.6250         6
  39.6500        10
  39.6750         6
  39.7000        10
  39.7250         9
  39.7500         7
  39.7750         6
  39.8000         4
  39.8250         7
  39.8500         8
  39.8750         7
  39.9000         9
  39.9250         8
  39.9500         7
  39.9750         6
  40.0000        10
  40.0250         7
  40.0500         9
  40.0750         7
  40.1000        18
  40.1250         5
  40.1500         9
  40.1750         8
  40.2000        11
  40.2250        11
  40.2500        11
  40.2750         5
  40.3000         6
  40.3250         5
  40.3500         5
  40.3750         7
  40.4000        12
  40.4250         8
  40.4500         8
  40.4750         8
  40.5000        13
  40.5250        10
  40.5500        13
  40.5750         8
  40.6000         9
  40.6250        11
  40.6500         8
  40.6750         9
  40.7000        15
  40.7250        11
  40.7500        12
  40.7750         7
  40.8000         7
  40.8250         8
  40.8500        14
  40.8750         6
  40.9000         6
  40.9250        10
  40.9500        14
  40.9750         8
  41.0000         7
  41.0250        14
  41.0500        13
  41.0750         2
  41.1000         6
  41.1250         9
  41.1500         5
  41.1750         6
  41.2000         4
  41.2250         4
  41.2500         8
  41.2750         5
  41.3000         5
  41.3250        10
  41.3500        10
  41.3750         6
  41.4000         5
  41.4250         2
  41.4500         6
  41.4750         5
  41.5000         6
  41.5250         9
  41.5500        10
  41.5750         8
  41.6000         4
  41.6250         7
  41.6500         8
  41.6750         3
  41.7000         9
  41.7250        12
  41.7500         6
  41.7750         7
  41.8000        12
  41.8250         9
  41.8500         5
  41.8750         4
  41.9000         7
  41.9250        10
  41.9500         8
  41.9750        12
  42.0000        10
  42.0250        10
  42.0500         8
  42.0750        10
  42.1000         9
  42.1250         4
  42.1500         8
  42.1750         9
  42.2000        12
  42.2250         4
  42.2500         6
  42.2750         6
  42.3000         8
  42.3250         9
  42.3500        14
  42.3750        11
  42.4000         5
  42.4250         7
  42.4500        11
  42.4750        10
  42.5000         7
  42.5250        10
  42.5500         4
  42.5750         9
  42.6000         8
  42.6250        12
  42.6500        10
  42.6750        12
  42.7000        10
  42.7250         9
  42.7500         6
  42.7750        11
  42.8000         9
  42.8250         8
  42.8500        10
  42.8750         8
  42.9000        12
  42.9250         7
  42.9500        13
  42.9750         8
  43.0000        15
  43.0250         6
  43.0500        11
  43.0750        13
  43.1000         8
  43.1250         9
  43.1500        17
  43.1750         5
  43.2000        14
  43.2250         9
  43.2500        11
  43.2750         8
  43.3000        14
  43.3250         9
  43.3500        16
  43.3750         7
  43.4000        15
  43.4250        12
  43.4500        11
  43.4750        11
  43.5000         9
  43.5250         9
  43.5500         6
  43.5750         6
  43.6000        10
  43.6250         2
  43.6500         7
  43.6750         9
  43.7000         8
  43.7250         4
  43.7500         2
  43.7750         9
  43.8000        11
  43.8250         5
  43.8500        13
  43.8750         9
  43.9000         5
  43.9250         8
  43.9500         7
  43.9750        11
  44.0000         9
  44.0250         6
  44.0500         4
  44.0750        10
  44.1000        11
  44.1250        10
  44.1500         8
  44.1750        11
  44.2000         9
  44.2250         7
  44.2500         7
  44.2750         9
  44.3000         5
  44.3250        11
  44.3500        12
  44.3750         6
  44.4000         8
  44.4250        10
  44.4500         7
  44.4750         6
  44.5000         7
  44.5250        13
  44.5500         9
  44.5750        16
  44.6000         6
  44.6250        11
  44.6500         8
  44.6750         8
  44.7000         9
  44.7250         7
  44.7500        10
  44.7750        15
  44.8000        12
  44.8250         5
  44.8500        13
  44.8750         9
  44.9000         7
  44.9250         8
  44.9500         7
  44.9750         4
  45.0000         5
  45.0250        11
  45.0500        12
  45.0750        13
  45.1000         7
  45.1250         4
  45.1500        11
  45.1750         6
  45.2000        12
  45.2250         8
  45.2500         3
  45.2750         7
  45.3000        12
  45.3250         7
  45.3500         8
  45.3750         5
  45.4000         5
  45.4250         9
  45.4500         8
  45.4750         7
  45.5000         6
  45.5250        13
  45.5500        10
  45.5750        10
  45.6000         5
  45.6250         8
  45.6500        11
  45.6750         9
  45.7000         9
  45.7250        11
  45.7500         5
  45.7750        13
  45.8000        10
  45.8250         4
  45.8500         7
  45.8750         4
  45.9000         6
  45.9250        10
  45.9500         8
  45.9750         9
  46.0000        14
  46.0250         4
  46.0500        18
  46.0750         7
  46.1000        10
  46.1250         9
  46.1500         7
  46.1750         7
  46.2000         8
  46.2250         7
  46.2500         7
  46.2750         6
  46.3000         9
  46.3250         5
  46.3500         3
  46.3750        12
  46.4000         4
  46.4250         8
  46.4500         8
  46.4750         9
  46.5000         9
  46.5250        11
  46.5500         5
  46.5750         4
  46.6000         9
  46.6250         9
  46.6500         6
  46.6750        11
  46.7000         6
  46.7250        14
  46.7500         7
  46.7750         9
  46.8000         6
  46.8250         7
  46.8500         7
  46.8750         3
  46.9000         8
  46.9250         5
  46.9500        13
  46.9750        10
  47.0000         6
  47.0250         8
  47.0500         7
  47.0750         6
  47.1000         5
  47.1250         7
  47.1500         9
  47.1750         4
  47.2000         5
  47.2250         6
  47.2500         9
  47.2750         6
  47.3000         9
  47.3250        12
  47.3500         8
  47.3750         8
  47.4000        13
  47.4250         7
  47.4500         5
  47.4750         6
  47.5000         7
  47.5250         7
  47.5500         7
  47.5750         7
  47.6000         5
  47.6250         9
  47.6500        12
  47.6750        10
  47.7000        11
  47.7250        11
  47.7500        13
  47.7750         5
  47.8000         9
  47.8250        11
  47.8500        16
  47.8750         9
  47.9000        12
  47.9250         6
  47.9500        10
  47.9750         6
  48.0000         7
  48.0250        10
  48.0500         4
  48.0750         5
  48.1000         4
  48.1250         3
  48.1500        15
  48.1750         6
  48.2000         6
  48.2250         8
  48.2500         7
  48.2750         3
  48.3000        10
  48.3250         7
  48.3500         5
  48.3750         6
  48.4000         8
  48.4250        10
  48.4500         7
  48.4750         2
  48.5000        12
  48.5250        14
  48.5500         6
  48.5750         8
  48.6000         7
  48.6250         8
  48.6500         6
  48.6750         7
  48.7000        10
  48.7250         6
  48.7500         9
  48.7750        10
  48.8000         7
  48.8250         9
  48.8500         9
  48.8750         3
  48.9000        13
  48.9250         8
  48.9500        13
  48.9750         6
  49.0000         7
  49.0250         7
  49.0500        10
  49.0750         5
  49.1000         9
  49.1250         4
  49.1500        10
  49.1750        10
  49.2000         7
  49.2250         8
  49.2500         6
  49.2750        10
  49.3000         7
  49.3250         8
  49.3500         7
  49.3750         8
  49.4000        11
  49.4250         4
  49.4500         9
  49.4750         8
  49.5000         7
  49.5250        10
  49.5500         8
  49.5750         5
  49.6000         5
  49.6250        11
  49.6500         9
  49.6750         3
  49.7000         4
  49.7250         7
  49.7500         9
  49.7750         6
  49.8000         8
  49.8250         5
  49.8500         8
  49.8750         6
  49.9000        10
  49.9250         5
  49.9500        15
  49.9750        11
  50.0000         6
  50.0250         3
  50.0500         7
  50.0750         8
  50.1000         7
  50.1250         6
  50.1500        12
  50.1750        10
  50.2000         8
  50.2250         5
  50.2500        15
  50.2750        11
  50.3000        10
  50.3250         9
  50.3500         7
  50.3750         8
  50.4000         8
  50.4250         7
  50.4500        13
  50.4750         7
  50.5000        11
  50.5250         8
  50.5500         9
  50.5750         7
  50.6000        10
  50.6250        11
  50.6500        12
  50.6750         5
  50.7000         6
  50.7250         7
  50.7500         6
  50.7750        14
  50.8000         8
  50.8250         7
  50.8500         6
  50.8750         9
  50.9000        15
  50.9250         6
  50.9500         4
  50.9750         7
  51.0000        16
  51.0250        13
  51.0500        10
  51.0750        14
  51.1000        10
  51.1250        14
  51.1500        11
  51.1750        14
  51.2000        17
  51.2250         4
  51.2500         9
  51.2750         9
  51.3000        18
  51.3250        10
  51.3500        13
  51.3750        10
  51.4000         7
  51.4250        11
  51.4500         9
  51.4750        10
  51.5000         8
  51.5250         5
  51.5500        15
  51.5750        15
  51.6000        11
  51.6250         8
  51.6500        14
  51.6750         6
  51.7000         7
  51.7250        15
  51.7500        15
  51.7750        14
  51.8000         3
  51.8250        17
  51.8500         8
  51.8750        20
  51.9000        16
  51.9250        17
  51.9500        12
  51.9750        12
  52.0000        15
  52.0250        24
  52.0500        29
  52.0750        19
  52.1000        25
  52.1250        23
  52.1500        26
  52.1750        48
  52.2000        58
  52.2250       108
  52.2500       167
  52.2750       227
  52.3000       330
  52.3250       360
  52.3500       376
  52.3750       326
  52.4000       306
  52.4250       288
  52.4500       251
  52.4750       202
  52.5000       184
  52.5250       153
  52.5500       138
  52.5750        77
  52.6000        64
  52.6250        39
  52.6500        39
  52.6750        31
  52.7000        20
  52.7250        26
  52.7500        12
  52.7750        15
  52.8000        19
  52.8250        26
  52.8500        11
  52.8750        14
  52.9000         9
  52.9250        17
  52.9500        14
  52.9750        10
  53.0000        14
  53.0250         9
  53.0500        19
  53.0750         9
  53.1000        12
  53.1250         7
  53.1500        17
  53.1750        19
  53.2000         9
  53.2250        10
  53.2500        11
  53.2750        15
  53.3000        13
  53.3250        14
  53.3500        12
  53.3750        15
  53.4000         9
  53.4250        10
  53.4500         9
  53.4750        17
  53.5000        10
  53.5250        11
  53.5500        12
  53.5750        10
  53.6000        18
  53.6250        12
  53.6500        10
  53.6750        12
  53.7000        11
  53.7250         6
  53.7500         9
  53.7750         9
  53.8000        10
  53.8250        12
  53.8500        12
  53.8750         4
  53.9000        13
  53.9250        15
  53.9500        10
  53.9750        15
  54.0000        13
  54.0250         7
  54.0500        10
  54.0750         9
  54.1000         9
  54.1250        16
  54.1500        15
  54.1750        17
  54.2000        10
  54.2250        14
  54.2500        11
  54.2750        10
  54.3000        14
  54.3250         9
  54.3500         5
  54.3750        14
  54.4000        15
  54.4250        14
  54.4500        16
  54.4750        13
  54.5000         9
  54.5250        16
  54.5500         9
  54.5750         7
  54.6000        11
  54.6250        13
  54.6500        14
  54.6750        11
  54.7000        10
  54.7250         7
  54.7500        14
  54.7750         6
  54.8000        15
  54.8250        10
  54.8500         9
  54.8750         4
  54.9000        10
  54.9250        12
  54.9500        10
  54.9750         5
  55.0000        12
  55.0250         9
  55.0500         6
  55.0750         8
  55.1000         7
  55.1250         9
  55.1500         7
  55.1750        10
  55.2000        10
  55.2250        18
  55.2500         8
  55.2750        11
  55.3000        13
  55.3250         7
  55.3500         7
  55.3750        11
  55.4000        16
  55.4250        11
  55.4500        14
  55.4750        14
  55.5000         6
  55.5250        10
  55.5500        13
  55.5750         9
  55.6000         9
  55.6250         7
  55.6500        14
  55.6750         5
  55.7000        14
  55.7250         9
  55.7500        13
  55.7750         9
  55.8000         7
  55.8250         8
  55.8500         7
  55.8750        10
  55.9000        17
  55.9250         2
  55.9500         2
  55.9750         4
  56.0000         7
  56.0250         7
  56.0500        13
  56.0750         7
  56.1000         5
  56.1250        15
  56.1500         5
  56.1750         6
  56.2000         5
  56.2250        13
  56.2500        10
  56.2750        10
  56.3000         4
  56.3250         9
  56.3500        14
  56.3750         8
  56.4000        10
  56.4250        10
  56.4500        10
  56.4750         6
  56.5000         4
  56.5250         4
  56.5500         8
  56.5750        12
  56.6000        14
  56.6250        11
  56.6500         6
  56.6750        11
  56.7000        16
  56.7250         7
  56.7500        12
  56.7750        11
  56.8000         8
  56.8250         6
  56.8500        11
  56.8750         9
  56.9000        11
  56.9250        13
  56.9500        13
  56.9750         6
  57.0000         9
  57.0250         6
  57.0500         9
  57.0750        12
  57.1000         9
  57.1250        16
  57.1500        11
  57.1750         4
  57.2000        10
  57.2250        13
  57.2500         8
  57.2750         6
  57.3000        14
  57.3250        13
  57.3500        19
  57.3750         6
  57.4000         8
  57.4250        11
  57.4500        11
  57.4750         9
  57.5000        10
  57.5250         7
  57.5500        11
  57.5750        11
  57.6000         9
  57.6250         9
  57.6500        11
  57.6750        10
  57.7000         9
  57.7250         4
  57.7500        17
  57.7750        13
  57.8000         9
  57.8250        12
  57.8500        10
  57.8750        10
  57.9000         7
  57.9250         6
  57.9500         6
  57.9750        12
  58.0000         8
  58.0250        13
  58.0500        10
  58.0750         6
  58.1000         9
  58.1250        10
  58.1500        15
  58.1750        12
  58.2000         7
  58.2250        14
  58.2500         5
  58.2750        13
  58.3000         6
  58.3250        11
  58.3500        10
  58.3750        10
  58.4000        13
  58.4250        17
  58.4500        11
  58.4750         8
  58.5000        15
  58.5250        12
  58.5500        11
  58.5750         9
  58.6000         8
  58.6250         8
  58.6500        19
  58.6750         3
  58.7000        12
  58.7250         9
  58.7500        10
  58.7750        11
  58.8000         8
  58.8250         6
  58.8500        10
  58.8750        14
  58.9000        10
  58.9250        12
  58.9500        13
  58.9750         8
  59.0000        12
  59.0250        12
  59.0500         6
  59.0750        13
  59.1000         7
  59.1250         8
  59.1500        12
  59.1750        11
  59.2000        11
  59.2250        10
  59.2500        13
  59.2750        12
  59.3000         9
  59.3250         4
  59.3500        17
  59.3750         8
  59.4000         9
  59.4250        13
  59.4500         9
  59.4750         6
  59.5000        10
  59.5250        15
  59.5500        10
  59.5750         8
  59.6000        10
  59.6250         9
  59.6500        11
  59.6750        11
  59.7000        10
  59.7250        14
  59.7500        12
  59.7750        11
  59.8000        13
  59.8250         7
  59.8500         8
  59.8750        11
  59.9000         8
  59.9250        10
  59.9500        13
  59.9750        10
  60.0000        11
  60.0250        13
  60.0500         4
  60.0750         6
  60.1000        13
  60.1250         6
  60.1500        12
  60.1750        11
  60.2000        11
  60.2250        15
  60.2500         9
  60.2750        10
  60.3000         9
  60.3250        11
  60.3500        12
  60.3750        11
  60.4000        12
  60.4250        12
  60.4500        13
  60.4750         7
  60.5000        11
  60.5250         7
  60.5500        10
  60.5750        12
  60.6000        12
  60.6250         7
  60.6500        17
  60.6750        10
  60.7000        20
  60.7250         8
  60.7500        18
  60.7750        11
  60.8000         7
  60.8250        13
  60.8500        11
  60.8750        20
  60.9000         9
  60.9250        11
  60.9500        12
  60.9750        13
  61.0000        18
  61.0250        14
  61.0500        13
  61.0750        10
  61.1000        11
  61.1250        11
  61.1500        10
  61.1750         9
  61.2000         7
  61.2250        13
  61.2500        11
  61.2750        14
  61.3000        13
  61.3250         9
  61.3500        11
  61.3750        20
  61.4000        14
  61.4250        12
  61.4500         6
  61.4750        12
  61.5000        19
  61.5250        11
  61.5500        15
  61.5750        14
  61.6000        15
  61.6250        12
  61.6500        16
  61.6750        20
  61.7000        16
  61.7250        18
  61.7500        17
  61.7750        14
  61.8000        16
  61.8250        18
  61.8500        18
  61.8750        20
  61.9000        19
  61.9250        16
  61.9500        24
  61.9750        34
  62.0000        30
  62.0250        33
  62.0500        48
  62.0750        71
  62.1000        65
  62.1250       116
  62.1500       176
  62.1750       221
  62.2000       302
  62.2250       392
  62.2500       378
  62.2750       312
  62.3000       261
  62.3250       249
  62.3500       238
  62.3750       223
  62.4000       221
  62.4250       191
  62.4500       158
  62.4750       156
  62.5000       100
  62.5250        69
  62.5500        41
  62.5750        46
  62.6000        28
  62.6250        27
  62.6500        27
  62.6750        22
  62.7000        19
  62.7250        17
  62.7500        25
  62.7750        22
  62.8000        20
  62.8250        11
  62.8500        11
  62.8750         9
  62.9000        21
  62.9250        17
  62.9500        11
  62.9750        10
  63.0000        12
  63.0250         8
  63.0500         6
  63.0750         9
  63.1000         7
  63.1250        16
  63.1500        13
  63.1750         8
  63.2000        12
  63.2250        10
  63.2500        10
  63.2750        15
  63.3000        13
  63.3250        11
  63.3500        21
  63.3750        12
  63.4000        11
  63.4250        19
  63.4500        10
  63.4750         8
  63.5000        10
  63.5250        13
  63.5500        13
  63.5750         9
  63.6000        10
  63.6250         9
  63.6500        10
  63.6750        14
  63.7000        10
  63.7250         6
  63.7500         8
  63.7750        10
  63.8000         6
  63.8250         8
  63.8500        16
  63.8750        14
  63.9000         5
  63.9250        14
  63.9500        11
  63.9750         7
  64.0000         9
  64.0250        10
  64.0500        11
  64.0750        17
  64.1000         8
  64.1250         9
  64.1500        11
  64.1750         8
  64.2000        11
  64.2250         6
  64.2500        13
  64.2750        15
  64.3000        12
  64.3250         6
  64.3500         6
  64.3750        11
  64.4000        13
  64.4250        11
  64.4500         6
  64.4750        10
  64.5000        13
  64.5250         9
  64.5500         6
  64.5750         9
  64.6000        11
  64.6250         8
  64.6500        13
  64.6750        14
  64.7000        11
  64.7250        22
  64.7500        11
  64.7750        13
  64.8000        12
  64.8250        11
  64.8500        12
  64.8750         9
  64.9000         9
  64.9250         9
  64.9500        17
  64.9750        14
  65.0000        15
  65.0250        13
  65.0500        13
  65.0750        14
  65.1000        17
  65.1250        24
  65.1500        20
  65.1750        29
  65.2000        33
  65.2250        35
  65.2500        53
  65.2750        96
  65.3000       124
  65.3250       149
  65.3500       148
  65.3750       114
  65.4000       104
  65.4250        88
  65.4500        88
  65.4750        79
  65.5000       100
  65.5250        77
  65.5500        85
  65.5750        62
  65.6000        37
  65.6250        30
  65.6500        30
  65.6750        15
  65.7000        12
  65.7250        11
  65.7500        12
  65.7750        15
  65.8000        11
  65.8250        17
  65.8500         9
  65.8750        13
  65.9000        14
  65.9250        13
  65.9500         5
  65.9750         7
  66.0000        10
  66.0250         9
  66.0500         9
  66.0750         8
  66.1000        12
  66.1250        18
  66.1500        12
  66.1750         5
  66.2000         8
  66.2250        12
  66.2500         8
  66.2750         4
  66.3000         7
  66.3250        10
  66.3500         8
  66.3750        12
  66.4000        17
  66.4250         8
  66.4500        14
  66.4750        11
  66.5000         9
  66.5250         7
  66.5500         9
  66.5750        10
  66.6000        16
  66.6250         5
  66.6500         9
  66.6750         9
  66.7000        11
  66.7250         8
  66.7500         7
  66.7750         7
  66.8000         9
  66.8250        17
  66.8500         9
  66.8750        12
  66.9000        12
  66.9250         7
  66.9500         6
  66.9750         2
  67.0000         5
  67.0250         7
  67.0500         9
  67.0750         7
  67.1000         7
  67.1250        10
  67.1500        12
  67.1750         9
  67.2000         9
  67.2250        10
  67.2500        13
  67.2750        10
  67.3000         7
  67.3250         9
  67.3500         8
  67.3750        11
  67.4000        11
  67.4250         6
  67.4500        11
  67.4750         8
  67.5000         8
  67.5250         9
  67.5500         9
  67.5750         7
  67.6000         5
  67.6250         7
  67.6500         5
  67.6750         6
  67.7000         5
  67.7250         7
  67.7500         5
  67.7750         5
  67.8000        10
  67.8250        11
  67.8500         6
  67.8750         5
  67.9000         9
  67.9250         5
  67.9500        15
  67.9750         9
  68.0000         9
  68.0250         8
  68.0500         8
  68.0750         7
  68.1000         7
  68.1250        11
  68.1500        10
  68.1750        10
  68.2000         9
  68.2250         5
  68.2500         5
  68.2750        10
  68.3000         7
  68.3250         8
  68.3500         9
  68.3750         8
  68.4000         7
  68.4250         5
  68.4500         6
  68.4750         8
  68.5000         6
  68.5250         2
  68.5500         9
  68.5750         8
  68.6000         7
  68.6250         5
  68.6500         4
  68.6750         2
  68.7000        10
  68.7250         8
  68.7500         6
  68.7750         9
  68.8000         6
  68.8250         5
  68.8500         9
  68.8750         4
  68.9000         4
  68.9250        11
  68.9500         4
  68.9750        11
  69.0000         4
  69.0250         7
  69.0500         4
  69.0750         6
  69.1000         6
  69.1250         7
  69.1500         9
  69.1750         4
  69.2000         8
  69.2250         7
  69.2500         2
  69.2750         6
  69.3000         6
  69.3250         6
  69.3500         2
  69.3750         9
  69.4000         4
  69.4250         9
  69.4500         9
  69.4750         5
  69.5000         8
  69.5250         6
  69.5500         4
  69.5750         2
  69.6000         7
  69.6250         5
  69.6500         7
  69.6750         6
  69.7000         6
  69.7250         8
  69.7500        12
  69.7750         3
  69.8000         4
  69.8250        10
  69.8500         9
  69.8750        12
  69.9000         5
  69.9250         5
  69.9500         5
  69.9750         5
  70.0000         9
  70.0250         6
  70.0500         8
  70.0750         3
  70.1000         6
  70.1250         8
  70.1500         3
  70.1750        12
  70.2000         7
  70.2250         9
  70.2500         7
  70.2750         5
  70.3000         8
  70.3250         9
  70.3500         3
  70.3750         2
  70.4000         6
  70.4250         6
  70.4500         6
  70.4750         6
  70.5000         8
  70.5250         4
  70.5500         5
  70.5750        11
  70.6000        10
  70.6250        11
  70.6500         4
  70.6750        10
  70.7000         6
  70.7250         8
  70.7500         8
  70.7750         7
  70.8000         9
  70.8250         5
  70.8500         8
  70.8750         2
  70.9000         8
  70.9250         8
  70.9500         3
  70.9750         6
  71.0000         8
  71.0250         5
  71.0500        16
  71.0750         5
  71.1000         6
  71.1250         9
  71.1500         1
  71.1750         5
  71.2000         5
  71.2250         5
  71.2500         8
  71.2750        11
  71.3000         9
  71.3250         9
  71.3500        11
  71.3750         8
  71.4000         6
  71.4250         7
  71.4500         6
  71.4750         7
  71.5000         6
  71.5250         9
  71.5500         8
  71.5750         6
  71.6000        10
  71.6250         5
  71.6500         3
  71.6750         4
  71.7000         8
  71.7250         8
  71.7500         6
  71.7750         8
  71.8000         7
  71.8250         7
  71.8500         7
  71.8750         3
  71.9000         6
  71.9250         7
  71.9500         9
  71.9750         8
  72.0000        10
  72.0250         8
  72.0500         9
  72.0750         3
  72.1000         9
  72.1250         3
  72.1500         5
  72.1750         5
  72.2000         8
  72.2250         6
  72.2500         4
  72.2750         9
  72.3000        12
  72.3250         9
  72.3500         6
  72.3750         9
  72.4000         4
  72.4250         3
  72.4500         8
  72.4750         7
  72.5000         7
  72.5250         6
  72.5500         7
  72.5750         6
  72.6000         5
  72.6250         6
  72.6500         5
  72.6750         8
  72.7000         4
  72.7250         8
  72.7500         9
  72.7750         8
  72.8000         2
  72.8250         4
  72.8500         7
  72.8750         6
  72.9000         7
  72.9250         4
  72.9500         8
  72.9750         9
  73.0000         6
  73.0250         4
  73.0500         6
  73.0750         3
  73.1000         8
  73.1250         6
  73.1500         9
  73.1750         6
  73.2000         5
  73.2250         9
  73.2500         7
  73.2750        10
  73.3000         9
  73.3250         7
  73.3500         6
  73.3750         4
  73.4000         7
  73.4250         8
  73.4500         8
  73.4750         8
  73.5000         6
  73.5250         4
  73.5500         8
  73.5750        10
  73.6000         6
  73.6250         6
  73.6500         8
  73.6750        13
  73.7000         6
  73.7250        10
  73.7500         3
  73.7750         8
  73.8000         9
  73.8250        11
  73.8500         5
  73.8750         8
  73.9000         4
  73.9250         2
  73.9500        12
  73.9750         5
  74.0000        10
  74.0250         5
  74.0500         2
  74.0750         7
  74.1000         6
  74.1250        13
  74.1500         8
  74.1750        12
  74.2000         6
  74.2250         4
  74.2500         2
  74.2750         7
  74.3000        10
  74.3250         5
  74.3500         6
  74.3750         5
  74.4000         5
  74.4250         5
  74.4500         7
  74.4750        10
  74.5000         8
  74.5250         8
  74.5500        10
  74.5750         7
  74.6000         7
  74.6250         5
  74.6500         9
  74.6750         8
  74.7000         3
  74.7250        11
  74.7500         8
  74.7750         9
  74.8000        11
  74.8250         5
  74.8500         8
  74.8750         6
  74.9000         6
  74.9250         8
  74.9500         9
  74.9750         7
  75.0000         3
  75.0250         1
  75.0500        11
  75.0750         6
  75.1000         5
  75.1250         6
  75.1500         9
  75.1750         7
  75.2000         7
  75.2250         9
  75.2500         8
  75.2750         7
  75.3000         7
  75.3250         5
  75.3500         4
  75.3750        10
  75.4000         7
  75.4250         5
  75.4500         4
  75.4750         3
  75.5000         2
  75.5250         8
  75.5500         8
  75.5750        16
  75.6000        11
  75.6250         7
  75.6500         9
  75.6750         4
  75.7000         5
  75.7250         6
  75.7500         8
  75.7750         6
  75.8000         3
  75.8250         6
  75.8500        11
  75.8750         6
  75.9000         6
  75.9250         3
  75.9500         6
  75.9750        11
  76.0000        10
  76.0250         3
  76.0500         6
  76.0750         4
  76.1000         9
  76.1250         8
  76.1500        10
  76.1750         9
  76.2000         9
  76.2250         6
  76.2500         5
  76.2750         8
  76.3000        10
  76.3250         3
  76.3500         4
  76.3750        11
  76.4000        10
  76.4250         9
  76.4500         6
  76.4750         8
  76.5000         6
  76.5250        10
  76.5500         8
  76.5750        10
  76.6000         9
  76.6250         1
  76.6500         9
  76.6750         8
  76.7000        12
  76.7250         2
  76.7500         9
  76.7750         5
  76.8000         8
  76.8250         6
  76.8500        13
  76.8750         8
  76.9000        14
  76.9250        14
  76.9500        17
  76.9750        21
  77.0000        23
  77.0250        37
  77.0500        32
  77.0750        48
  77.1000        52
  77.1250        50
  77.1500        45
  77.1750        25
  77.2000        22
  77.2250        24
  77.2500        21
  77.2750        24
  77.3000        24
  77.3250        19
  77.3500        22
  77.3750        24
  77.4000        20
  77.4250        14
  77.4500        14
  77.4750         6
  77.5000         7
  77.5250         3
  77.5500         6
  77.5750        11
  77.6000         8
  77.6250         7
  77.6500         9
  77.6750         6
  77.7000        13
  77.7250         9
  77.7500         4
  77.7750        10
  77.8000         5
  77.8250         4
  77.8500         9
  77.8750         8
  77.9000         9
  77.9250         7
  77.9500         8
  77.9750         8
  78.0000         5
  78.0250         7
  78.0500         5
  78.0750         8
  78.1000         6
  78.1250         7
  78.1500         4
  78.1750         5
  78.2000         9
  78.2250         7
  78.2500         7
  78.2750         6
  78.3000         9
  78.3250         8
  78.3500         4
  78.3750         5
  78.4000         4
  78.4250         6
  78.4500         2
  78.4750         6
  78.5000         4
  78.5250         3
  78.5500         8
  78.5750         6
  78.6000        14
  78.6250         4
  78.6500         6
  78.6750         5
  78.7000         4
  78.7250        11
  78.7500         7
  78.7750        13
  78.8000        13
  78.8250        10
  78.8500         5
  78.8750         7
  78.9000         3
  78.9250         4
  78.9500         7
  78.9750        10
  79.0000         7
  79.0250         3
  79.0500         6
  79.0750         6
  79.1000         6
  79.1250        11
  79.1500         6
  79.1750        10
  79.2000         6
  79.2250         8
  79.2500         6
  79.2750         3
  79.3000         5
  79.3250         9
  79.3500         4
  79.3750         5
  79.4000         4
  79.4250         7
  79.4500         9
  79.4750         4
  79.5000         9
  79.5250         4
  79.5500         7
  79.5750         8
  79.6000        12
  79.6250         6
  79.6500         3
  79.6750         4
  79.7000         5
  79.7250         8
  79.7500         4
  79.7750         4
  79.8000         5
  79.8250        11
  79.8500         4
  79.8750         8
  79.9000        11
  79.9250         5
  79.9500         9
  79.9750        14
  80.0000         6
  80.0250         3
  80.0500         4
  80.0750         5
  80.1000         7
  80.1250        11
  80.1500         3
  80.1750         7
  80.2000         6
  80.2250        13
  80.2500         5
  80.2750         5
  80.3000         7
  80.3250         4
  80.3500         4
  80.3750         4
  80.4000         8
  80.4250         7
  80.4500         7
  80.4750        12
  80.5000         3
  80.5250         9
  80.5500         9
  80.5750         7
  80.6000         4
  80.6250         6
  80.6500         5
  80.6750         5
  80.7000         7
  80.7250         6
  80.7500         7
  80.7750         8
  80.8000         7
  80.8250         5
  80.8500         7
  80.8750         6
  80.9000         8
  80.9250         6
  80.9500         9
  80.9750         7
  81.0000         6
  81.0250         7
  81.0500         8
  81.0750         4
  81.1000         5
  81.1250         3
  81.1500        10
  81.1750         3
  81.2000         3
  81.2250         6
  81.2500         6
  81.2750         7
  81.3000         7
  81.3250         5
  81.3500        12
  81.3750         3
  81.4000         6
  81.4250         7
  81.4500         8
  81.4750         3
  81.5000        10
  81.5250        10
  81.5500         3
  81.5750         7
  81.6000        21
  81.6250         9
  81.6500         5
  81.6750         8
  81.7000         5
  81.7250         9
  81.7500         4
  81.7750        13
  81.8000         3
  81.8250         5
  81.8500         8
  81.8750         6
  81.9000         7
  81.9250         7
  81.9500         3
  81.9750         6
  82.0000         3
  82.0250         4
  82.0500        11
  82.0750         3
  82.1000         8
  82.1250        10
  82.1500         7
  82.1750         7
  82.2000         2
  82.2250         7
  82.2500         4
  82.2750         9
  82.3000         7
  82.3250         4
  82.3500         6
  82.3750         4
  82.4000         6
  82.4250         9
  82.4500         9
  82.4750         6
  82.5000        14
  82.5250         7
  82.5500         3
  82.5750         6
  82.6000        11
  82.6250         5
  82.6500         5
  82.6750         7
  82.7000         7
  82.7250         8
  82.7500        14
  82.7750        10
  82.8000         6
  82.8250         7
  82.8500        11
  82.8750         7
  82.9000         6
  82.9250         5
  82.9500         3
  82.9750         5
  83.0000         6
  83.0250         9
  83.0500         8
  83.0750         9
  83.1000        10
  83.1250         7
  83.1500        10
  83.1750         7
  83.2000         8
  83.2250         6
  83.2500         8
  83.2750         3
  83.3000         5
  83.3250         6
  83.3500         4
  83.3750         6
  83.4000         5
  83.4250         8
  83.4500         9
  83.4750         8
  83.5000         5
  83.5250         6
  83.5500         8
  83.5750         4
  83.6000         7
  83.6250        10
  83.6500         3
  83.6750         5
  83.7000         6
  83.7250         7
  83.7500         6
  83.7750        13
  83.8000        12
  83.8250         8
  83.8500         8
  83.8750         3
  83.9000         9
  83.9250         8
  83.9500         4
  83.9750        11
  84.0000         7
  84.0250         7
  84.0500        17
  84.0750         5
  84.1000         5
  84.1250         7
  84.1500         7
  84.1750         9
  84.2000        10
  84.2250         9
  84.2500        10
  84.2750        14
  84.3000        15
  84.3250        11
  84.3500        10
  84.3750         6
  84.4000         9
  84.4250         7
  84.4500         7
  84.4750        10
  84.5000        10
  84.5250         6
  84.5500         9
  84.5750         5
  84.6000        11
  84.6250         7
  84.6500        10
  84.6750         8
  84.7000         8
  84.7250         3
  84.7500        10
  84.7750         7
  84.8000         7
  84.8250        12
  84.8500        13
  84.8750         5
  84.9000         8
  84.9250        17
  84.9500         7
  84.9750        12
  85.0000        11
  85.0250         9
  85.0500         8
  85.0750        16
  85.1000        12
  85.1250        12
  85.1500        20
  85.1750        13
  85.2000         7
  85.2250        17
  85.2500        16
  85.2750        13
  85.3000        14
  85.3250        16
  85.3500        30
  85.3750        29
  85.4000        42
  85.4250        55
  85.4500        71
  85.4750        97
  85.5000        92
  85.5250       107
  85.5500       107
  85.5750        91
  85.6000        64
  85.6250        43
  85.6500        41
  85.6750        35
  85.7000        43
  85.7250        57
  85.7500        55
  85.7750        60
  85.8000        54
  85.8250        56
  85.8500        37
  85.8750        31
  85.9000        18
  85.9250        23
  85.9500        21
  85.9750        19
  86.0000         9
  86.0250        12
  86.0500        13
  86.0750         9
  86.1000        13
  86.1250        13
  86.1500         8
  86.1750        13
  86.2000        10
  86.2250         9
  86.2500         5
  86.2750        15
  86.3000        12
  86.3250        16
  86.3500         9
  86.3750        17
  86.4000         8
  86.4250         9
  86.4500        13
  86.4750        11
  86.5000        11
  86.5250        10
  86.5500         8
  86.5750         6
  86.6000        11
  86.6250        13
  86.6500        11
  86.6750         7
  86.7000        15
  86.7250        12
  86.7500         8
  86.7750         6
  86.8000         7
  86.8250         8
  86.8500        14
  86.8750        13
  86.9000         7
  86.9250        10
  86.9500         9
  86.9750         5
  87.0000         6
  87.0250        10
  87.0500        10
  87.0750         8
  87.1000         7
  87.1250        11
  87.1500         5
  87.1750        11
  87.2000        10
  87.2250        11
  87.2500         6
  87.2750         6
  87.3000        15
  87.3250         9
  87.3500         8
  87.3750        10
  87.4000         8
  87.4250        10
  87.4500        10
  87.4750        14
  87.5000        12
  87.5250        17
  87.5500        10
  87.5750         8
  87.6000         8
  87.6250         8
  87.6500        12
  87.6750        12
  87.7000        10
  87.7250        13
  87.7500        11
  87.7750        12
  87.8000         7
  87.8250        14
  87.8500        14
  87.8750         8
  87.9000         8
  87.9250        16
  87.9500        10
  87.9750        16
  88.0000        17
  88.0250        10
  88.0500        18
  88.0750        22
  88.1000        22
  88.1250        26
  88.1500        30
  88.1750        36
  88.2000        56
  88.2250        49
  88.2500        71
  88.2750        82
  88.3000        76
  88.3250        83
  88.3500        74
  88.3750        55
  88.4000        47
  88.4250        42
  88.4500        42
  88.4750        51
  88.5000        52
  88.5250        45
  88.5500        48
  88.5750        29
  88.6000        49
  88.6250        47
  88.6500        36
  88.6750        29
  88.7000        19
  88.7250        15
  88.7500        17
  88.7750        14
  88.8000        13
  88.8250        10
  88.8500        13
  88.8750        10
  88.9000        10
  88.9250        13
  88.9500         8
  88.9750        17
  89.0000         6
  89.0250         8
  89.0500         7
  89.0750        11
  89.1000         7
  89.1250         7
  89.1500        10
  89.1750         5
  89.2000        11
  89.2250         5
  89.2500        10
  89.2750        11
  89.3000        11
  89.3250         9
  89.3500         7
  89.3750        13
  89.4000         9
  89.4250        11
  89.4500        10
  89.4750         6
  89.5000         9
  89.5250         9
  89.5500         4
  89.5750         8
  89.6000         5
  89.6250         8
  89.6500         9
  89.6750        13
  89.7000         2
  89.7250        11
  89.7500        10
  89.7750        12
  89.8000         4
  89.8250         3
  89.8500        13
  89.8750        12
  89.9000         5
  89.9250         4
  89.9500         7
  89.9750         5
  90.0000         8
  90.0250         9
  90.0500         6
  90.0750         8
  90.1000         6
  90.1250         8
  90.1500         5
  90.1750        15
  90.2000         7
  90.2250        10
  90.2500         6
  90.2750         9
  90.3000         8
  90.3250         6
  90.3500         8
  90.3750        11
  90.4000         3
  90.4250        10
  90.4500         6
  90.4750        16
  90.5000        13
  90.5250         6
  90.5500         6
  90.5750         8
  90.6000         5
  90.6250         5
  90.6500        11
  90.6750         9
  90.7000         6
  90.7250         9
  90.7500         3
  90.7750         5
  90.8000        10
  90.8250         8
  90.8500        10
  90.8750         3
  90.9000         8
  90.9250         8
  90.9500         9
  90.9750         5
  91.0000         5
  91.0250        11
  91.0500         6
  91.0750        11
  91.1000         9
  91.1250        12
  91.1500        13
  91.1750         9
  91.2000         8
  91.2250        10
  91.2500        10
  91.2750        10
  91.3000         9
  91.3250         6
  91.3500         8
  91.3750         6
  91.4000        12
  91.4250         8
  91.4500         6
  91.4750         8
  91.5000         3
  91.5250         8
  91.5500         9
  91.5750         8
  91.6000         7
  91.6250        14
  91.6500         5
  91.6750         7
  91.7000         8
  91.7250         8
  91.7500         5
  91.7750         8
  91.8000        12
  91.8250         8
  91.8500         4
  91.8750        10
  91.9000         2
  91.9250         3
  91.9500         8
  91.9750         8
  92.0000         9
  92.0250         5
  92.0500        11
  92.0750         5
  92.1000         5
  92.1250        10
  92.1500         8
  92.1750         5
  92.2000        10
  92.2250         6
  92.2500         9
  92.2750         4
  92.3000         6
  92.3250         5
  92.3500         8
  92.3750         2
  92.4000         3
  92.4250         9
  92.4500         6
  92.4750         5
  92.5000        10
  92.5250         7
  92.5500         5
  92.5750         9
  92.6000        10
  92.6250         9
  92.6500         6
  92.6750         8
  92.7000         6
  92.7250        16
  92.7500         9
  92.7750         6
  92.8000        10
  92.8250        14
  92.8500        11
  92.8750         2
  92.9000         4
  92.9250         6
  92.9500         2
  92.9750         8
  93.0000         4
  93.0250         6
  93.0500        11
  93.0750         7
  93.1000         5
  93.1250        11
  93.1500        12
  93.1750        10
  93.2000         8
  93.2250         8
  93.2500         7
  93.2750         6
  93.3000         3
  93.3250        10
  93.3500         8
  93.3750         3
  93.4000         5
  93.4250         5
  93.4500         8
  93.4750         5
  93.5000        10
  93.5250         7
  93.5500         6
  93.5750         9
  93.6000        12
  93.6250         7
  93.6500         6
  93.6750        10
  93.7000         9
  93.7250         5
  93.7500         8
  93.7750         5
  93.8000         4
  93.8250         5
  93.8500        11
  93.8750         9
  93.9000         2
  93.9250         6
  93.9500         6
  93.9750         7
  94.0000         9
  94.0250         8
  94.0500         6
  94.0750         6
  94.1000        12
  94.1250         7
  94.1500         8
  94.1750         3
  94.2000         8
  94.2250        12
  94.2500        10
  94.2750         8
  94.3000        12
  94.3250         8
  94.3500         9
  94.3750         7
  94.4000         6
  94.4250         0
  94.4500         6
  94.4750         7
  94.5000        10
  94.5250         6
  94.5500        11
  94.5750         9
  94.6000         5
  94.6250         4
  94.6500         6
  94.6750        11
  94.7000         4
  94.7250         8
  94.7500        10
  94.7750         4
  94.8000        14
  94.8250         7
  94.8500        10
  94.8750         7
  94.9000         7
  94.9250        10
  94.9500         8
  94.9750         9
  95.0000         7
  95.0250         6
  95.0500         9
  95.0750         4
  95.1000         7
  95.1250         7
  95.1500         9
  95.1750         5
  95.2000        10
  95.2250         8
  95.2500         6
  95.2750         4
  95.3000         4
  95.3250         6
  95.3500         4
  95.3750         9
  95.4000         4
  95.4250        10
  95.4500         6
  95.4750         3
  95.5000         5
  95.5250         7
  95.5500         6
  95.5750        10
  95.6000        12
  95.6250         8
  95.6500         8
  95.6750         6
  95.7000        10
  95.7250         9
  95.7500        11
  95.7750         5
  95.8000         8
  95.8250         6
  95.8500         6
  95.8750         6
  95.9000         3
  95.9250         9
  95.9500         5
  95.9750         7
  96.0000        15
  96.0250         8
  96.0500        11
  96.0750         8
  96.1000         5
  96.1250        11
  96.1500         6
  96.1750         9
  96.2000         2
  96.2250         8
  96.2500         9
  96.2750         7
  96.3000        10
  96.3250         9
  96.3500         7
  96.3750         4
  96.4000        11
  96.4250        14
  96.4500         7
  96.4750        10
  96.5000         5
  96.5250         7
  96.5500         4
  96.5750        10
  96.6000         4
  96.6250        11
  96.6500         8
  96.6750         7
  96.7000         6
  96.7250         9
  96.7500         9
  96.7750         7
  96.8000         5
  96.8250         8
  96.8500         5
  96.8750        12
  96.9000         5
  96.9250        11
  96.9500         7
  96.9750         7
  97.0000         5
  97.0250        15
  97.0500         2
  97.0750         3
  97.1000        11
  97.1250         8
  97.1500         6
  97.1750         9
  97.2000         6
  97.2250         8
  97.2500        10
  97.2750         4
  97.3000         6
  97.3250        10
  97.3500        10
  97.3750         7
  97.4000         6
  97.4250         5
  97.4500         7
  97.4750         7
  97.5000        11
  97.5250         3
  97.5500         9
  97.5750        11
  97.6000         5
  97.6250        11
  97.6500         2
  97.6750         9
  97.7000         8
  97.7250         4
  97.7500         6
  97.7750         5
  97.8000         7
  97.8250         5
  97.8500         6
  97.8750        10
  97.9000         7
  97.9250         9
  97.9500         4
  97.9750         5
  98.0000         7
  98.0250        11
  98.0500         6
  98.0750         9
  98.1000         9
  98.1250         6
  98.1500         6
  98.1750         9
  98.2000        10
  98.2250         9
  98.2500         9
  98.2750         7
  98.3000        14
  98.3250         7
  98.3500         6
  98.3750         8
  98.4000         4
  98.4250         5
  98.4500        14
  98.4750         7
  98.5000         9
  98.5250        11
  98.5500        17
  98.5750         7
  98.6000         8
  98.6250        12
  98.6500         5
  98.6750         5
  98.7000         5
  98.7250        10
  98.7500         8
  98.7750        15
  98.8000         5
  98.8250        14
  98.8500        12
  98.8750        10
  98.9000         6
  98.9250         6
  98.9500        11
  98.9750         8
  99.0000        10
  99.0250        11
  99.0500        10
  99.0750        11
  99.1000         7
  99.1250        15
  99.1500        11
  99.1750        12
  99.2000        13
  99.2250        18
  99.2500        17
  99.2750        22
  99.3000        28
  99.3250        32
  99.3500        35
  99.3750        49
  99.4000        48
  99.4250        56
  99.4500        62
  99.4750        61
  99.5000        48
  99.5250        35
  99.5500        40
  99.5750        23
  99.6000        25
  99.6250        19
  99.6500        29
  99.6750        28
  99.7000        33
  99.7250        25
  99.7500        27
  99.7750        30
  99.8000        40
  99.8250        41
  99.8500        22
  99.8750        21
  99.9000        19
  99.9250        11
  99.9500        12
  99.9750        13
 100.0000        10
 100.0250        14
 100.0500        10
 100.0750        12
 100.1000         9
 100.1250        14
 100.1500        14
 100.1750        16
 100.2000         9
 100.2250        12
 100.2500         9
 100.2750         5
 100.3000        13
 100.3250         8
 100.3500        13
 100.3750        10
 100.4000         4
 100.4250         3
 100.4500         5
 100.4750        11
 100.5000         7
 100.5250         7
 100.5500         7
 100.5750         4
 100.6000         8
 100.6250        15
 100.6500         7
 100.6750         6
 100.7000        10
 100.7250         6
 100.7500         5
 100.7750         6
 100.8000         6
 100.8250        13
 100.8500         9
 100.8750         6
 100.9000         6
 100.9250         8
 100.9500         7
 100.9750         5
 101.0000        11
 101.0250        12
 101.0500         7
 101.0750         6
 101.1000         6
 101.1250         2
 101.1500         4
 101.1750        12
 101.2000         5
 101.2250         4
 101.2500         6
 101.2750        10
 101.3000         7
 101.3250         7
 101.3500         8
 101.3750        11
 101.4000         8
 101.4250         7
 101.4500         3
 101.4750        11
 101.5000         6
 101.5250        10
 101.5500         3
 101.5750         5
 101.6000         5
 101.6250         7
 101.6500         9
 101.6750         7
 101.7000         7
 101.7250         7
 101.7500        11
 101.7750         8
 101.8000         4
 101.8250         7
 101.8500        10
 101.8750         8
 101.9000         4
 101.9250         5
 101.9500         4
 101.9750         8
 102.0000         5
 102.0250         7
 102.0500         3
 102.0750         8
 102.1000        12
 102.1250         9
 102.1500         5
 102.1750         5
 102.2000        10
 102.2250         8
 102.2500        13
 102.2750         6
 102.3000        11
 102.3250         8
 102.3500         8
 102.3750         5
 102.4000         5
 102.4250         8
 102.4500         7
 102.4750        11
 102.5000         5
 102.5250        11
 102.5500        10
 102.5750         4
 102.6000         6
 102.6250         5
 102.6500         5
 102.6750         6
 102.7000         7
 102.7250         4
 102.7500         7
 102.7750         7
 102.8000         9
 102.8250         8
 102.8500         8
 102.8750        13
 102.9000        11
 102.9250         5
 102.9500         9
 102.9750         4
 103.0000         1
 103.0250         7
 103.0500         9
 103.0750         7
 103.1000         4
 103.1250         8
 103.1500         8
 103.1750         6
 103.2000         7
 103.2250         9
 103.2500         8
 103.2750         7
 103.3000         8
 103.3250         9
 103.3500         8
 103.3750        10
 103.4000        13
 103.4250         7
 103.4500         9
 103.4750        11
 103.5000         8
 103.5250        11
 103.5500         8
 103.5750         6
 103.6000         4
 103.6250        15
 103.6500        10
 103.6750        14
 103.7000         6
 103.7250        10
 103.7500         5
 103.7750         9
 103.8000         8
 103.8250         8
 103.8500         3
 103.8750         6
 103.9000         5
 103.9250        10
 103.9500         8
 103.9750        12
 104.0000         6
 104.0250         9
 104.0500         8
 104.0750         5
 104.1000         9
 104.1250         3
 104.1500        10
 104.1750         6
 104.2000         8
 104.2250         6
 104.2500         7
 104.2750         8
 104.3000         5
 104.3250         4
 104.3500         7
 104.3750         3
 104.4000         6
 104.4250         8
 104.4500        13
 104.4750        10
 104.5000         7
 104.5250         9
 104.5500         9
 104.5750         8
 104.6000         3
 104.6250         6
 104.6500         6
 104.6750        10
 104.7000         4
 104.7250         9
 104.7500         5
 104.7750         9
 104.8000         5
 104.8250         7
 104.8500         7
 104.8750         4
 104.9000        10
 104.9250         6
 104.9500         5
 104.9750        12
 105.0000         4
 105.0250         6
 105.0500         6
 105.0750        17
 105.1000        15
 105.1250        10
 105.1500         7
 105.1750         5
 105.2000         8
 105.2250        10
 105.2500        11
 105.2750         5
 105.3000         6
 105.3250         5
 105.3500         7
 105.3750         5
 105.4000         3
 105.4250         7
 105.4500         7
 105.4750        10
 105.5000         5
 105.5250        11
 105.5500         2
 105.5750         3
 105.6000         6
 105.6250         9
 105.6500        13
 105.6750         5
 105.7000         3
 105.7250        12
 105.7500         5
 105.7750         7
 105.8000        12
 105.8250         6
 105.8500         4
 105.8750        11
 105.9000         7
 105.9250         6
 105.9500         5
 105.9750         5
 106.0000        15
 106.0250         4
 106.0500         3
 106.0750         9
 106.1000         7
 106.1250        13
 106.1500         7
 106.1750         9
 106.2000        14
 106.2250         6
 106.2500        12
 106.2750        14
 106.3000         4
 106.3250         9
 106.3500         9
 106.3750         9
 106.4000         9
 106.4250        11
 106.4500        10
 106.4750         7
 106.5000         4
 106.5250         3
 106.5500        12
 106.5750        10
 106.6000        12
 106.6250         5
 106.6500        12
 106.6750         5
 106.7000        10
 106.7250        12
 106.7500         6
 106.7750         7
 106.8000         3
 106.8250         4
 106.8500         7
 106.8750         7
 106.9000         5
 106.9250         5
 106.9500        13
 106.9750         9
 107.0000         5
 107.0250         8
 107.0500        10
 107.0750         3
 107.1000         8
 107.1250         8
 107.1500         9
 107.1750        11
 107.2000         7
 107.2250         8
 107.2500         5
 107.2750         9
 107.3000         7
 107.3250        11
 107.3500         3
 107.3750        14
 107.4000        15
 107.4250         9
 107.4500         7
 107.4750        11
 107.5000         8
 107.5250         8
 107.5500        12
 107.5750         7
 107.6000        14
 107.6250        13
 107.6500         8
 107.6750        17
 107.7000        16
 107.7250        21
 107.7500        12
 107.7750        23
 107.8000        28
 107.8250        30
 107.8500        25
 107.8750        45
 107.9000        50
 107.9250        54
 107.9500        51
 107.9750        66
 108.0000        78
 108.0250        73
 108.0500        57
 108.0750        55
 108.1000        37
 108.1250        37
 108.1500        29
 108.1750        23
 108.2000        25
 108.2250        28
 108.2500        13
 108.2750        26
 108.3000        35
 108.3250        41
 108.3500        36
 108.3750        46
 108.4000        34
 108.4250        32
 108.4500        34
 108.4750        23
 108.5000        36
 108.5250        21
 108.5500        16
 108.5750        18
 108.6000        17
 108.6250        11
 108.6500        18
 108.6750        15
 108.7000         9
 108.7250         8
 108.7500        15
 108.7750         9
 108.8000         9
 108.8250         8
 108.8500        14
 108.8750        13
 108.9000         9
 108.9250        10
 108.9500        13
 108.9750         8
 109.0000         8
 109.0250        10
 109.0500        14
 109.0750         7
 109.1000        10
 109.1250         6
 109.1500         8
 109.1750         4
 109.2000        10
 109.2250         8
 109.2500         6
 109.2750        10
 109.3000         9
 109.3250        11
 109.3500         8
 109.3750         6
 109.4000         7
 109.4250         7
 109.4500         6
 109.4750        12
 109.5000         7
 109.5250         8
 109.5500         3
 109.5750        10
 109.6000         6
 109.6250         4
 109.6500         6
 109.6750         7
 109.7000         4
 109.7250         4
 109.7500         8
 109.7750        11
 109.8000         6
 109.8250         4
 109.8500         6
 109.8750         7
 109.9000        10
 109.9250         5
 109.9500        11
 109.9750         5
 110.0000         4
