  20.0000         3
  20.0250         5
  20.0500         6
  20.0750         1
  20.1000         4
  20.1250         4
  20.1500         2
  20.1750         2
  20.2000         7
  20.2250         3
  20.2500         2
  20.2750         3
  20.3000         1
  20.3250         3
  20.3500         6
  20.3750         8
  20.4000         3
  20.4250         2
  20.4500         5
  20.4750         5
  20.5000         6
  20.5250         8
  20.5500         7
  20.5750         3
  20.6000         2
  20.6250         0
  20.6500         5
  20.6750         3
  20.7000        11
  20.7250         4
  20.7500         5
  20.7750         2
  20.8000         4
  20.8250         3
  20.8500         4
  20.8750         7
  20.9000         9
  20.9250         5
  20.9500         1
  20.9750         8
  21.0000         4
  21.0250         3
  21.0500         1
  21.0750         2
  21.1000         4
  21.1250         7
  21.1500         3
  21.1750         2
  21.2000         4
  21.2250         3
  21.2500         3
  21.2750         2
  21.3000         4
  21.3250         4
  21.3500         4
  21.3750         3
  21.4000         7
  21.4250         5
  21.4500         3
  21.4750         0
  21.5000         2
  21.5250         4
  21.5500         3
  21.5750         4
  21.6000         1
  21.6250         4
  21.6500         4
  21.6750         4
  21.7000         2
  21.7250         2
  21.7500         4
  21.7750         5
  21.8000         4
  21.8250         4
  21.8500         3
  21.8750         5
  21.9000         7
  21.9250         4
  21.9500         5
  21.9750         3
  22.0000         4
  22.0250         2
  22.0500         2
  22.0750         4
  22.1000         4
  22.1250         5
  22.1500         3
  22.1750         2
  22.2000         7
  22.2250         2
  22.2500         7
  22.2750        10
  22.3000         3
  22.3250         3
  22.3500         4
  22.3750         5
  22.4000         6
  22.4250         3
  22.4500         2
  22.4750         3
  22.5000         6
  22.5250         4
  22.5500         3
  22.5750         2
  22.6000         4
  22.6250         5
  22.6500         6
  22.6750         7
  22.7000         2
  22.7250         4
  22.7500         4
  22.7750         5
  22.8000         4
  22.8250         4
  22.8500         1
  22.8750         5
  22.9000         2
  22.9250         4
  22.9500         4
  22.9750         3
  23.0000         5
  23.0250         3
  23.0500         6
  23.0750         3
  23.1000         5
  23.1250        10
  23.1500         3
  23.1750         3
  23.2000         6
  23.2250         5
  23.2500         3
  23.2750         6
  23.3000         7
  23.3250         3
  23.3500         4
  23.3750         4
  23.4000         2
  23.4250         7
  23.4500         3
  23.4750         2
  23.5000         4
  23.5250         2
  23.5500         5
  23.5750         2
  23.6000         4
  23.6250         7
  23.6500         2
  23.6750         6
  23.7000         2
  23.7250         3
  23.7500         3
  23.7750         5
  23.8000         4
  23.8250         4
  23.8500         3
  23.8750         3
  23.9000         6
  23.9250         2
  23.9500         4
  23.9750         5
  24.0000         4
  24.0250         2
  24.0500         7
  24.0750         3
  24.1000         5
  24.1250         6
  24.1500         4
  24.1750         3
  24.2000         4
  24.2250         2
  24.2500         3
  24.2750         6
  24.3000         7
  24.3250         5
  24.3500         0
  24.3750         8
  24.4000         5
  24.4250         5
  24.4500         2
  24.4750         7
  24.5000         3
  24.5250         1
  24.5500         4
  24.5750         2
  24.6000         0
  24.6250         6
  24.6500         5
  24.6750         7
  24.7000         1
  24.7250         6
  24.7500         2
  24.7750         2
  24.8000         9
  24.8250         5
  24.8500         5
  24.8750         5
  24.9000         3
  24.9250         4
  24.9500         5
  24.9750         5
  25.0000         2
  25.0250         3
  25.0500         7
  25.0750         6
  25.1000         5
  25.1250         4
  25.1500         2
  25.1750         4
  25.2000         3
  25.2250         7
  25.2500         5
  25.2750         3
  25.3000         6
  25.3250         6
  25.3500         6
  25.3750         6
  25.4000         5
  25.4250         5
  25.4500         3
  25.4750         4
  25.5000         7
  25.5250         8
  25.5500         7
  25.5750         2
  25.6000         2
  25.6250         5
  25.6500         2
  25.6750         4
  25.7000         3
  25.7250         4
  25.7500         7
  25.7750         6
  25.8000         1
  25.8250         4
  25.8500         7
  25.8750         5
  25.9000         4
  25.9250         3
  25.9500         7
  25.9750         5
  26.0000         4
  26.0250         6
  26.0500         5
  26.0750         2
  26.1000         7
  26.1250         6
  26.1500         2
  26.1750         2
  26.2000         3
  26.2250         7
  26.2500         5
  26.2750         2
  26.3000         7
  26.3250         3
  26.3500         1
  26.3750         4
  26.4000         6
  26.4250         1
  26.4500         4
  26.4750         6
  26.5000         4
  26.5250         7
  26.5500         5
  26.5750         2
  26.6000         4
  26.6250         5
  26.6500         2
  26.6750         6
  26.7000         2
  26.7250         7
  26.7500         6
  26.7750         6
  26.8000         5
  26.8250         7
  26.8500         8
  26.8750         2
  26.9000         3
  26.9250         7
  26.9500         4
  26.9750         2
  27.0000         6
  27.0250         3
  27.0500         6
  27.0750         0
  27.1000         3
  27.1250         5
  27.1500         2
  27.1750         1
  27.2000         4
  27.2250         3
  27.2500         4
  27.2750         2
  27.3000         5
  27.3250         3
  27.3500         1
  27.3750         7
  27.4000         2
  27.4250         0
  27.4500         7
  27.4750         0
  27.5000         3
  27.5250         7
  27.5500         3
  27.5750         7
  27.6000         5
  27.6250         2
  27.6500         7
  27.6750         7
  27.7000         6
  27.7250         5
  27.7500         3
  27.7750         6
  27.8000         6
  27.8250         2
  27.8500         4
  27.8750         7
  27.9000         1
  27.9250         3
  27.9500         3
  27.9750         5
  28.0000         4
  28.0250         4
  28.0500         6
  28.0750         1
  28.1000        11
  28.1250         4
  28.1500         3
  28.1750         7
  28.2000         2
  28.2250         3
  28.2500         1
  28.2750         3
  28.3000         4
  28.3250         5
  28.3500         2
  28.3750         3
  28.4000         5
  28.4250         7
  28.4500         3
  28.4750         9
  28.5000         9
  28.5250        10
  28.5500         3
  28.5750         9
  28.6000        10
  28.6250         6
  28.6500         5
  28.6750         4
  28.7000         4
  28.7250        10
  28.7500         8
  28.7750         4
  28.8000         2
  28.8250         4
  28.8500         4
  28.8750         6
  28.9000         6
  28.9250         3
  28.9500         3
  28.9750         2
  29.0000        10
  29.0250         6
  29.0500         5
  29.0750         3
  29.1000         3
  29.1250         5
  29.1500         6
  29.1750         5
  29.2000         5
  29.2250         5
  29.2500         4
  29.2750         3
  29.3000         2
  29.3250         8
  29.3500         4
  29.3750         6
  29.4000         4
  29.4250         4
  29.4500         8
  29.4750         6
  29.5000         6
  29.5250         4
  29.5500         4
  29.5750         9
  29.6000         5
  29.6250         5
  29.6500         6
  29.6750         8
  29.7000         5
  29.7250         6
  29.7500        10
  29.7750         8
  29.8000        10
  29.8250         7
  29.8500        10
  29.8750         9
  29.9000         6
  29.9250         9
  29.9500         7
  29.9750         9
  30.0000         4
  30.0250         7
  30.0500         9
  30.0750         8
  30.1000         9
  30.1250         9
  30.1500         9
  30.1750         6
  30.2000         6
  30.2250         6
  30.2500        10
  30.2750        10
  30.3000        14
  30.3250        11
  30.3500        12
  30.3750         7
  30.4000        13
  30.4250        16
  30.4500        18
  30.4750        22
  30.5000        26
  30.5250        41
  30.5500        55
  30.5750        79
  30.6000       130
  30.6250       220
  30.6500       296
  30.6750       455
  30.7000       553
  30.7250       540
  30.7500       495
  30.7750       396
  30.8000       321
  30.8250       239
  30.8500       146
  30.8750        97
  30.9000        55
  30.9250        30
  30.9500        16
  30.9750        17
  31.0000        10
  31.0250        18
  31.0500        13
  31.0750        14
  31.1000         8
  31.1250        15
  31.1500         9
  31.1750        15
  31.2000        13
  31.2250        10
  31.2500         5
  31.2750        11
  31.3000        14
  31.3250         9
  31.3500        14
  31.3750        15
  31.4000         9
  31.4250        13
  31.4500         8
  31.4750        15
  31.5000         7
  31.5250        10
  31.5500        12
  31.5750        15
  31.6000         9
  31.6250        11
  31.6500        11
  31.6750        19
  31.7000         3
  31.7250         8
  31.7500        12
  31.7750         7
  31.8000        19
  31.8250        19
  31.8500        29
  31.8750        26
  31.9000        33
  31.9250        63
  31.9500        76
  31.9750       128
  32.0000       199
  32.0250       277
  32.0500       395
  32.0750       546
  32.1000       577
  32.1250       508
  32.1500       435
  32.1750       408
  32.2000       294
  32.2250       192
  32.2500       120
  32.2750        78
  32.3000        48
  32.3250        26
  32.3500        19
  32.3750        14
  32.4000        17
  32.4250        15
  32.4500        14
  32.4750        11
  32.5000        11
  32.5250         6
  32.5500         9
  32.5750         5
  32.6000         8
  32.6250         9
  32.6500         9
  32.6750         9
  32.7000        12
  32.7250         7
  32.7500         5
  32.7750        13
  32.8000         6
  32.8250         3
  32.8500         6
  32.8750         6
  32.9000         8
  32.9250         8
  32.9500        11
  32.9750         6
  33.0000         6
  33.0250         8
  33.0500         1
  33.0750         3
  33.1000         8
  33.1250         8
  33.1500         5
  33.1750         5
  33.2000         8
  33.2250        10
  33.2500         4
  33.2750         3
  33.3000         6
  33.3250         8
  33.3500         6
  33.3750         9
  33.4000         7
  33.4250         5
  33.4500         5
  33.4750         7
  33.5000         7
  33.5250         6
  33.5500        10
  33.5750         3
  33.6000         3
  33.6250         6
  33.6500         2
  33.6750        10
  33.7000        12
  33.7250         8
  33.7500         3
  33.7750         2
  33.8000         3
  33.8250         5
  33.8500         4
  33.8750         7
  33.9000         5
  33.9250         5
  33.9500         3
  33.9750         2
  34.0000         8
  34.0250         3
  34.0500         4
  34.0750         5
  34.1000         6
  34.1250         4
  34.1500         3
  34.1750         1
  34.2000         4
  34.2250         6
  34.2500         7
  34.2750         6
  34.3000         5
  34.3250         4
  34.3500         3
  34.3750         6
  34.4000         2
  34.4250         2
  34.4500         8
  34.4750         3
  34.5000         3
  34.5250         5
  34.5500        10
  34.5750         4
  34.6000         3
  34.6250         2
  34.6500         3
  34.6750         7
  34.7000         7
  34.7250         7
  34.7500         2
  34.7750         4
  34.8000         3
  34.8250         3
  34.8500         6
  34.8750         7
  34.9000         4
  34.9250         4
  34.9500         6
  34.9750         6
  35.0000         5
  35.0250         9
  35.0500         5
  35.0750         7
  35.1000         7
  35.1250         6
  35.1500         7
  35.1750         8
  35.2000         5
  35.2250         5
  35.2500         6
  35.2750         6
  35.3000         3
  35.3250         8
  35.3500         5
  35.3750         7
  35.4000         4
  35.4250         2
  35.4500         4
  35.4750         9
  35.5000         4
  35.5250         8
  35.5500         5
  35.5750         3
  35.6000         8
  35.6250         3
  35.6500         9
  35.6750         6
  35.7000         5
  35.7250         5
  35.7500         5
  35.7750         4
  35.8000         5
  35.8250         7
  35.8500         8
  35.8750         6
  35.9000         9
  35.9250         5
  35.9500         2
  35.9750         5
  36.0000         2
  36.0250         5
  36.0500         4
  36.0750         5
  36.1000         4
  36.1250         4
  36.1500         5
  36.1750         5
  36.2000         4
  36.2250         7
  36.2500         7
  36.2750         4
  36.3000         6
  36.3250         8
  36.3500         4
  36.3750         8
  36.4000         5
  36.4250         4
  36.4500         1
  36.4750         2
  36.5000         4
  36.5250         5
  36.5500         1
  36.5750         5
  36.6000         3
  36.6250         3
  36.6500         7
  36.6750         4
  36.7000         0
  36.7250         4
  36.7500         9
  36.7750         5
  36.8000         6
  36.8250         2
  36.8500         1
  36.8750         6
  36.9000        10
  36.9250         2
  36.9500         1
  36.9750         5
  37.0000         2
  37.0250         7
  37.0500         8
  37.0750         5
  37.1000         4
  37.1250         4
  37.1500         3
  37.1750         5
  37.2000         4
  37.2250         5
  37.2500         5
  37.2750         3
  37.3000         4
  37.3250         3
  37.3500         8
  37.3750         3
  37.4000         5
  37.4250         3
  37.4500         4
  37.4750         7
  37.5000         7
  37.5250         5
  37.5500         7
  37.5750         3
  37.6000         4
  37.6250         5
  37.6500         4
  37.6750         2
  37.7000         4
  37.7250         2
  37.7500         2
  37.7750         4
  37.8000         1
  37.8250         2
  37.8500         4
  37.8750         2
  37.9000         8
  37.9250         4
  37.9500         9
  37.9750         4
  38.0000         4
  38.0250         4
  38.0500         4
  38.0750         7
  38.1000         2
  38.1250         6
  38.1500         5
  38.1750         5
  38.2000         6
  38.2250         5
  38.2500         6
  38.2750         5
  38.3000         6
  38.3250         3
  38.3500        13
  38.3750         5
  38.4000         8
  38.4250         5
  38.4500         6
  38.4750         2
  38.5000         3
  38.5250         6
  38.5500         3
  38.5750         5
  38.6000         5
  38.6250         6
  38.6500         3
  38.6750         7
  38.7000         4
  38.7250         5
  38.7500         1
  38.7750         3
  38.8000         6
  38.8250         3
  38.8500         8
  38.8750         5
  38.9000         8
  38.9250         6
  38.9500         6
  38.9750        11
  39.0000         7
  39.0250         6
  39.0500         4
  39.0750         7
  39.1000         5
  39.1250         4
  39.1500         8
  39.1750         4
  39.2000        10
  39.2250         5
  39.2500         4
  39.2750         5
  39.3000         2
  39.3250         5
  39.3500         6
  39.3750         7
  39.4000         7
  39.4250         3
  39.4500         3
  39.4750         8
  39.5000         5
  39.5250         8
  39.5500         5
  39.5750         4
  39.6000         5
  39.6250         7
  39.6500         1
  39.6750         8
  39.7000         3
  39.7250         7
  39.7500         3
  39.7750         5
  39.8000         4
  39.8250         9
  39.8500         3
  39.8750         6
  39.9000         7
  39.9250         6
  39.9500         4
  39.9750         4
  40.0000         3
  40.0250         5
  40.0500         5
  40.0750         2
  40.1000         6
  40.1250         9
  40.1500         6
  40.1750         4
  40.2000         4
  40.2250         3
  40.2500         5
  40.2750         8
  40.3000         5
  40.3250         8
  40.3500         8
  40.3750         5
  40.4000         8
  40.4250         0
  40.4500         3
  40.4750         5
  40.5000         6
  40.5250         3
  40.5500         3
  40.5750         6
  40.6000         4
  40.6250         8
  40.6500         4
  40.6750         1
  40.7000         1
  40.7250         5
  40.7500         8
  40.7750         1
  40.8000         3
  40.8250         3
  40.8500         7
  40.8750         4
  40.9000         4
  40.9250         0
  40.9500         4
  40.9750         5
  41.0000         4
  41.0250         8
  41.0500         4
  41.0750         2
  41.1000         2
  41.1250         3
  41.1500         1
  41.1750         8
  41.2000         6
  41.2250         5
  41.2500         4
  41.2750         3
  41.3000         2
  41.3250         8
  41.3500         6
  41.3750         3
  41.4000         3
  41.4250         3
  41.4500         8
  41.4750         7
  41.5000         6
  41.5250         5
  41.5500         6
  41.5750         1
  41.6000         4
  41.6250         4
  41.6500         1
  41.6750         4
  41.7000         4
  41.7250         6
  41.7500         1
  41.7750         6
  41.8000         6
  41.8250         6
  41.8500         4
  41.8750         3
  41.9000         1
  41.9250         2
  41.9500         6
  41.9750         1
  42.0000         4
  42.0250        10
  42.0500         1
  42.0750         7
  42.1000         4
  42.1250         4
  42.1500         2
  42.1750         5
  42.2000         7
  42.2250         6
  42.2500         2
  42.2750         7
  42.3000         4
  42.3250        10
  42.3500         3
  42.3750         1
  42.4000         6
  42.4250         5
  42.4500         3
  42.4750         3
  42.5000         4
  42.5250         2
  42.5500         4
  42.5750         4
  42.6000         3
  42.6250         5
  42.6500         4
  42.6750         5
  42.7000        10
  42.7250         5
  42.7500         9
  42.7750         5
  42.8000         5
  42.8250         3
  42.8500         3
  42.8750         5
  42.9000         5
  42.9250         7
  42.9500         6
  42.9750         8
  43.0000         2
  43.0250        10
  43.0500         7
  43.0750         7
  43.1000         2
  43.1250        11
  43.1500         7
  43.1750         3
  43.2000         6
  43.2250         4
  43.2500         5
  43.2750         8
  43.3000         6
  43.3250         7
  43.3500         9
  43.3750         8
  43.4000         6
  43.4250         3
  43.4500        13
  43.4750         7
  43.5000         5
  43.5250         8
  43.5500         7
  43.5750         7
  43.6000        20
  43.6250        14
  43.6500         7
  43.6750        13
  43.7000        14
  43.7250        20
  43.7500        19
  43.7750        14
  43.8000        38
  43.8250        47
  43.8500        61
  43.8750        75
  43.9000       104
  43.9250       182
  43.9500       167
  43.9750       149
  44.0000       165
  44.0250       160
  44.0500       155
  44.0750       122
  44.1000        70
  44.1250        67
  44.1500        49
  44.1750        40
  44.2000        22
  44.2250        12
  44.2500        10
  44.2750         7
  44.3000         9
  44.3250         7
  44.3500         8
  44.3750        12
  44.4000         8
  44.4250         7
  44.4500         9
  44.4750         8
  44.5000        11
  44.5250         9
  44.5500        13
  44.5750        11
  44.6000         7
  44.6250         9
  44.6500         8
  44.6750        16
  44.7000        16
  44.7250        12
  44.7500        10
  44.7750        12
  44.8000        43
  44.8250        38
  44.8500        62
  44.8750        58
  44.9000       144
  44.9250       236
  44.9500       349
  44.9750       407
  45.0000       388
  45.0250       335
  45.0500       346
  45.0750       305
  45.1000       236
  45.1250       187
  45.1500       147
  45.1750       109
  45.2000        72
  45.2250        29
  45.2500        23
  45.2750        17
  45.3000        18
  45.3250        12
  45.3500         7
  45.3750        20
  45.4000         4
  45.4250         6
  45.4500         9
  45.4750         5
  45.5000        11
  45.5250        12
  45.5500         2
  45.5750         8
  45.6000         5
  45.6250         3
  45.6500         8
  45.6750         4
  45.7000         5
  45.7250        11
  45.7500         7
  45.7750         5
  45.8000        10
  45.8250         5
  45.8500         6
  45.8750         3
  45.9000         5
  45.9250         6
  45.9500         7
  45.9750         8
  46.0000         4
  46.0250         2
  46.0500         8
  46.0750         5
  46.1000         4
  46.1250         3
  46.1500         4
  46.1750         4
  46.2000         3
  46.2250         6
  46.2500         4
  46.2750         6
  46.3000         2
  46.3250         5
  46.3500         3
  46.3750         3
  46.4000         5
  46.4250         5
  46.4500         4
  46.4750         7
  46.5000         7
  46.5250         2
  46.5500         5
  46.5750         5
  46.6000         4
  46.6250         6
  46.6500         7
  46.6750         6
  46.7000         3
  46.7250         1
  46.7500         4
  46.7750         4
  46.8000         5
  46.8250         2
  46.8500         3
  46.8750         4
  46.9000         0
  46.9250         3
  46.9500         3
  46.9750         7
  47.0000         0
  47.0250         2
  47.0500         4
  47.0750         5
  47.1000         4
  47.1250         5
  47.1500         7
  47.1750         3
  47.2000         1
  47.2250         1
  47.2500         4
  47.2750         3
  47.3000         5
  47.3250         7
  47.3500         8
  47.3750        11
  47.4000        25
  47.4250        20
  47.4500        10
  47.4750         9
  47.5000         7
  47.5250         8
  47.5500        24
  47.5750        10
  47.6000         5
  47.6250         0
  47.6500         4
  47.6750         6
  47.7000         3
  47.7250         1
  47.7500         4
  47.7750         3
  47.8000         3
  47.8250         3
  47.8500         4
  47.8750         2
  47.9000         2
  47.9250         1
  47.9500         3
  47.9750         2
  48.0000         6
  48.0250         1
  48.0500         8
  48.0750         1
  48.1000         7
  48.1250         2
  48.1500         1
  48.1750         0
  48.2000         5
  48.2250         1
  48.2500         1
  48.2750         2
  48.3000         6
  48.3250         2
  48.3500         2
  48.3750         2
  48.4000         2
  48.4250         3
  48.4500         4
  48.4750         4
  48.5000         5
  48.5250         5
  48.5500         2
  48.5750         7
  48.6000         4
  48.6250         2
  48.6500         5
  48.6750         5
  48.7000         4
  48.7250         4
  48.7500         7
  48.7750         2
  48.8000         4
  48.8250         3
  48.8500         4
  48.8750         2
  48.9000         2
  48.9250         4
  48.9500         7
  48.9750         2
  49.0000         4
  49.0250         1
  49.0500         3
  49.0750         2
  49.1000         7
  49.1250         8
  49.1500         2
  49.1750         2
  49.2000         2
  49.2250         3
  49.2500         5
  49.2750         1
  49.3000         3
  49.3250         3
  49.3500         5
  49.3750         3
  49.4000         3
  49.4250         3
  49.4500         2
  49.4750         4
  49.5000         5
  49.5250         2
  49.5500         5
  49.5750         5
  49.6000         3
  49.6250         6
  49.6500         5
  49.6750         3
  49.7000         4
  49.7250         2
  49.7500         4
  49.7750         4
  49.8000         5
  49.8250         4
  49.8500         5
  49.8750         4
  49.9000         2
  49.9250         6
  49.9500         5
  49.9750         6
  50.0000         1
  50.0250         6
  50.0500         2
  50.0750         2
  50.1000         3
  50.1250         3
  50.1500         4
  50.1750         5
  50.2000         2
  50.2250         5
  50.2500         4
  50.2750         5
  50.3000         7
  50.3250         6
  50.3500         4
  50.3750         3
  50.4000         4
  50.4250         4
  50.4500         6
  50.4750         2
  50.5000         8
  50.5250         1
  50.5500         0
  50.5750         5
  50.6000         3
  50.6250         8
  50.6500         8
  50.6750         4
  50.7000         5
  50.7250         7
  50.7500         3
  50.7750         4
  50.8000         4
  50.8250         2
  50.8500         4
  50.8750         6
  50.9000         6
  50.9250         6
  50.9500         8
  50.9750         9
  51.0000         1
  51.0250         8
  51.0500         7
  51.0750         4
  51.1000         7
  51.1250         6
  51.1500         5
  51.1750         5
  51.2000         4
  51.2250         6
  51.2500         8
  51.2750         3
  51.3000         4
  51.3250         2
  51.3500         8
  51.3750         4
  51.4000         6
  51.4250         6
  51.4500         4
  51.4750         0
  51.5000         5
  51.5250         4
  51.5500         4
  51.5750         3
  51.6000         5
  51.6250         1
  51.6500         2
  51.6750         1
  51.7000         6
  51.7250         3
  51.7500         3
  51.7750         1
  51.8000         2
  51.8250         4
  51.8500         4
  51.8750         0
  51.9000         2
  51.9250         2
  51.9500         2
  51.9750         6
  52.0000         5
  52.0250         3
  52.0500         2
  52.0750         3
  52.1000         1
  52.1250         0
  52.1500         7
  52.1750         1
  52.2000         1
  52.2250         3
  52.2500         1
  52.2750         3
  52.3000         2
  52.3250         4
  52.3500         4
  52.3750         4
  52.4000         2
  52.4250         4
  52.4500         3
  52.4750         2
  52.5000         4
  52.5250         5
  52.5500         0
  52.5750         1
  52.6000         1
  52.6250         3
  52.6500         1
  52.6750         6
  52.7000         6
  52.7250         4
  52.7500         2
  52.7750         0
  52.8000         5
  52.8250         7
  52.8500         3
  52.8750         3
  52.9000         9
  52.9250         0
  52.9500         4
  52.9750         6
  53.0000         4
  53.0250         3
  53.0500         5
  53.0750         5
  53.1000         5
  53.1250         5
  53.1500         4
  53.1750         2
  53.2000         2
  53.2250         6
  53.2500         2
  53.2750         1
  53.3000         4
  53.3250         2
  53.3500         8
  53.3750         4
  53.4000         6
  53.4250         2
  53.4500         1
  53.4750         3
  53.5000         4
  53.5250         1
  53.5500         5
  53.5750         3
  53.6000         6
  53.6250         1
  53.6500         4
  53.6750         6
  53.7000         1
  53.7250         2
  53.7500         3
  53.7750         3
  53.8000         3
  53.8250         5
  53.8500         2
  53.8750         4
  53.9000         8
  53.9250         4
  53.9500         4
  53.9750         2
  54.0000         4
  54.0250         2
  54.0500         5
  54.0750         3
  54.1000         3
  54.1250         5
  54.1500         5
  54.1750         6
  54.2000         3
  54.2250         3
  54.2500         5
  54.2750         2
  54.3000         3
  54.3250         3
  54.3500         5
  54.3750         4
  54.4000         5
  54.4250         5
  54.4500         3
  54.4750         3
  54.5000         5
  54.5250         6
  54.5500         3
  54.5750         4
  54.6000         2
  54.6250         4
  54.6500         4
  54.6750         7
  54.7000         4
  54.7250         5
  54.7500         1
  54.7750         6
  54.8000         5
  54.8250         2
  54.8500         5
  54.8750         5
  54.9000         4
  54.9250         7
  54.9500         5
  54.9750         2
  55.0000         4
  55.0250         2
  55.0500         3
  55.0750         6
  55.1000        11
  55.1250         4
  55.1500         6
  55.1750         2
  55.2000         7
  55.2250        10
  55.2500         7
  55.2750        14
  55.3000        21
  55.3250        16
  55.3500        45
  55.3750        67
  55.4000        85
  55.4250       102
  55.4500        77
  55.4750        58
  55.5000        61
  55.5250        47
  55.5500        53
  55.5750        51
  55.6000        43
  55.6250        28
  55.6500        11
  55.6750        16
  55.7000         9
  55.7250         4
  55.7500         2
  55.7750         4
  55.8000         2
  55.8250         6
  55.8500         6
  55.8750         7
  55.9000         5
  55.9250         3
  55.9500         3
  55.9750         2
  56.0000         6
  56.0250         7
  56.0500         5
  56.0750         2
  56.1000         6
  56.1250         6
  56.1500         4
  56.1750         8
  56.2000         3
  56.2250         5
  56.2500         6
  56.2750         6
  56.3000         1
  56.3250         6
  56.3500         1
  56.3750         4
  56.4000         4
  56.4250         5
  56.4500         2
  56.4750         3
  56.5000         4
  56.5250         7
  56.5500         3
  56.5750         2
  56.6000         6
  56.6250         5
  56.6500         1
  56.6750         5
  56.7000         1
  56.7250         6
  56.7500         4
  56.7750         6
  56.8000         4
  56.8250        12
  56.8500         5
  56.8750         6
  56.9000         3
  56.9250         4
  56.9500         6
  56.9750         4
  57.0000         1
  57.0250         1
  57.0500         4
  57.0750         4
  57.1000         5
  57.1250         1
  57.1500         3
  57.1750         6
  57.2000         6
  57.2250         1
  57.2500         3
  57.2750         4
  57.3000         3
  57.3250         9
  57.3500         3
  57.3750         6
  57.4000         3
  57.4250         2
  57.4500         6
  57.4750         4
  57.5000         6
  57.5250         4
  57.5500         3
  57.5750         7
  57.6000         2
  57.6250         3
  57.6500         3
  57.6750         6
  57.7000         4
  57.7250         3
  57.7500         7
  57.7750         6
  57.8000         3
  57.8250         3
  57.8500         2
  57.8750         4
  57.9000         8
  57.9250         7
  57.9500         4
  57.9750         5
  58.0000         7
  58.0250         4
  58.0500         7
  58.0750         4
  58.1000         5
  58.1250         4
  58.1500         7
  58.1750         7
  58.2000         6
  58.2250         3
  58.2500         2
  58.2750         5
  58.3000         4
  58.3250         4
  58.3500         4
  58.3750         4
  58.4000         6
  58.4250         4
  58.4500         4
  58.4750         5
  58.5000         4
  58.5250         7
  58.5500         6
  58.5750         6
  58.6000         5
  58.6250         1
  58.6500         6
  58.6750         5
  58.7000         6
  58.7250         2
  58.7500         4
  58.7750         3
  58.8000         3
  58.8250         6
  58.8500         5
  58.8750         4
  58.9000         5
  58.9250         4
  58.9500         3
  58.9750         2
  59.0000         5
  59.0250         2
  59.0500         6
  59.0750         4
  59.1000         3
  59.1250         7
  59.1500         4
  59.1750         3
  59.2000         7
  59.2250         1
  59.2500         3
  59.2750         2
  59.3000         5
  59.3250         3
  59.3500         3
  59.3750         3
  59.4000         3
  59.4250         3
  59.4500         5
  59.4750         7
  59.5000         3
  59.5250         7
  59.5500         5
  59.5750         2
  59.6000         5
  59.6250         2
  59.6500         0
  59.6750         7
  59.7000         6
  59.7250         7
  59.7500         5
  59.7750         4
  59.8000         4
  59.8250         2
  59.8500         2
  59.8750         3
  59.9000         6
  59.9250         2
  59.9500         4
  59.9750         2
  60.0000         7
  60.0250         2
  60.0500         4
  60.0750         3
  60.1000         4
  60.1250         4
  60.1500         5
  60.1750         2
  60.2000         5
  60.2250         4
  60.2500         0
  60.2750         5
  60.3000         3
  60.3250         3
  60.3500         3
  60.3750         3
  60.4000         6
  60.4250         5
  60.4500         4
  60.4750         2
  60.5000         2
  60.5250         7
  60.5500         5
  60.5750         3
  60.6000         1
  60.6250         6
  60.6500         9
  60.6750         4
  60.7000         2
  60.7250         5
  60.7500         5
  60.7750         4
  60.8000         7
  60.8250         3
  60.8500         3
  60.8750         3
  60.9000         4
  60.9250         8
  60.9500         3
  60.9750         3
  61.0000         1
  61.0250         4
  61.0500         6
  61.0750         9
  61.1000         2
  61.1250         6
  61.1500         8
  61.1750         5
  61.2000         2
  61.2250         6
  61.2500         2
  61.2750         5
  61.3000         2
  61.3250        10
  61.3500         8
  61.3750         8
  61.4000         7
  61.4250         8
  61.4500         3
  61.4750         4
  61.5000         5
  61.5250         2
  61.5500         5
  61.5750         6
  61.6000         6
  61.6250         5
  61.6500         5
  61.6750         5
  61.7000         4
  61.7250         7
  61.7500         3
  61.7750         5
  61.8000         9
  61.8250         6
  61.8500         9
  61.8750         5
  61.9000         7
  61.9250         5
  61.9500         3
  61.9750         2
  62.0000         4
  62.0250         5
  62.0500         4
  62.0750         5
  62.1000         6
  62.1250        11
  62.1500         6
  62.1750         3
  62.2000         8
  62.2250         7
  62.2500         7
  62.2750         6
  62.3000        14
  62.3250         6
  62.3500         8
  62.3750         7
  62.4000         8
  62.4250         8
  62.4500         8
  62.4750        11
  62.5000        20
  62.5250        28
  62.5500        58
  62.5750        77
  62.6000        93
  62.6250        90
  62.6500        75
  62.6750        67
  62.7000        74
  62.7250        51
  62.7500        53
  62.7750        75
  62.8000        62
  62.8250        43
  62.8500        43
  62.8750        30
  62.9000        24
  62.9250        15
  62.9500        10
  62.9750        10
  63.0000        14
  63.0250         4
  63.0500         8
  63.0750         9
  63.1000         5
  63.1250        11
  63.1500         4
  63.1750         3
  63.2000         5
  63.2250         2
  63.2500         5
  63.2750         7
  63.3000         7
  63.3250         5
  63.3500        13
  63.3750         7
  63.4000         6
  63.4250         6
  63.4500         8
  63.4750         7
  63.5000        10
  63.5250         6
  63.5500         2
  63.5750         9
  63.6000         4
  63.6250         5
  63.6500         9
  63.6750         4
  63.7000         6
  63.7250         6
  63.7500         7
  63.7750        14
  63.8000        23
  63.8250        27
  63.8500        29
  63.8750        38
  63.9000        42
  63.9250        44
  63.9500        33
  63.9750        19
  64.0000        16
  64.0250        20
  64.0500        19
  64.0750        35
  64.1000        16
  64.1250        15
  64.1500        19
  64.1750         7
  64.2000        13
  64.2250         9
  64.2500         3
  64.2750         7
  64.3000         2
  64.3250         7
  64.3500         9
  64.3750         8
  64.4000         5
  64.4250         7
  64.4500         7
  64.4750         5
  64.5000         6
  64.5250         7
  64.5500        26
  64.5750        36
  64.6000        64
  64.6250       100
  64.6500       106
  64.6750       110
  64.7000        83
  64.7250        78
  64.7500        52
  64.7750        54
  64.8000        57
  64.8250        65
  64.8500        46
  64.8750        48
  64.9000        34
  64.9250        29
  64.9500        15
  64.9750        19
  65.0000        15
  65.0250         6
  65.0500         2
  65.0750         4
  65.1000         5
  65.1250         4
  65.1500         8
  65.1750         2
  65.2000         5
  65.2250         6
  65.2500         8
  65.2750         6
  65.3000         9
  65.3250         4
  65.3500         6
  65.3750         6
  65.4000         5
  65.4250         7
  65.4500         6
  65.4750         5
  65.5000        10
  65.5250         5
  65.5500        16
  65.5750         4
  65.6000         0
  65.6250         5
  65.6500         6
  65.6750         4
  65.7000         6
  65.7250         3
  65.7500         6
  65.7750         7
  65.8000         6
  65.8250         3
  65.8500         5
  65.8750         1
  65.9000         4
  65.9250         4
  65.9500         3
  65.9750         3
  66.0000         4
  66.0250         5
  66.0500         4
  66.0750         4
  66.1000        10
  66.1250         7
  66.1500         4
  66.1750         5
  66.2000         3
  66.2250         6
  66.2500         2
  66.2750         9
  66.3000         4
  66.3250         7
  66.3500         3
  66.3750         2
  66.4000         5
  66.4250         3
  66.4500         2
  66.4750         1
  66.5000         2
  66.5250         6
  66.5500         2
  66.5750         4
  66.6000         5
  66.6250         7
  66.6500         3
  66.6750         5
  66.7000         5
  66.7250         8
  66.7500         4
  66.7750         3
  66.8000         3
  66.8250         9
  66.8500         5
  66.8750         3
  66.9000         3
  66.9250         4
  66.9500         4
  66.9750         2
  67.0000         3
  67.0250         0
  67.0500         4
  67.0750         2
  67.1000         4
  67.1250         3
  67.1500         3
  67.1750         2
  67.2000         3
  67.2250         2
  67.2500         6
  67.2750         5
  67.3000         5
  67.3250         6
  67.3500         2
  67.3750         2
  67.4000         4
  67.4250         0
  67.4500         3
  67.4750         4
  67.5000         4
  67.5250         3
  67.5500         1
  67.5750         7
  67.6000         2
  67.6250         5
  67.6500         3
  67.6750         5
  67.7000         5
  67.7250         5
  67.7500         2
  67.7750         8
  67.8000         5
  67.8250         8
  67.8500         4
  67.8750         5
  67.9000         7
  67.9250         7
  67.9500         5
  67.9750         6
  68.0000         8
  68.0250         3
  68.0500         7
  68.0750         6
  68.1000         4
  68.1250         4
  68.1500         2
  68.1750         4
  68.2000         4
  68.2250         1
  68.2500         7
  68.2750         4
  68.3000         6
  68.3250         1
  68.3500         3
  68.3750         4
  68.4000         3
  68.4250         2
  68.4500         7
  68.4750         2
  68.5000         3
  68.5250        10
  68.5500         4
  68.5750         1
  68.6000         3
  68.6250         7
  68.6500         2
  68.6750         4
  68.7000         2
  68.7250         0
  68.7500         3
  68.7750         4
  68.8000         8
  68.8250         8
  68.8500         3
  68.8750         6
  68.9000         4
  68.9250         2
  68.9500         3
  68.9750         1
  69.0000         9
  69.0250         1
  69.0500         6
  69.0750         8
  69.1000         5
  69.1250         5
  69.1500         6
  69.1750         6
  69.2000         3
  69.2250         8
  69.2500         1
  69.2750         3
  69.3000         2
  69.3250         2
  69.3500         3
  69.3750         5
  69.4000         5
  69.4250         3
  69.4500         4
  69.4750         3
  69.5000         5
  69.5250         4
  69.5500         1
  69.5750         6
  69.6000         5
  69.6250         2
  69.6500         2
  69.6750         7
  69.7000         1
  69.7250         6
  69.7500         3
  69.7750         7
  69.8000         9
  69.8250         2
  69.8500         2
  69.8750         4
  69.9000         2
  69.9250         4
  69.9500         1
  69.9750         2
  70.0000         2
  70.0250         1
  70.0500         3
  70.0750         2
  70.1000         6
  70.1250         2
  70.1500         1
  70.1750         3
  70.2000         2
  70.2250         7
  70.2500         2
  70.2750         3
  70.3000         5
  70.3250         4
  70.3500         1
  70.3750         7
  70.4000         6
  70.4250         2
  70.4500         5
  70.4750         5
  70.5000         6
  70.5250         2
  70.5500         7
  70.5750         3
  70.6000         4
  70.6250         4
  70.6500         5
  70.6750         4
  70.7000         6
  70.7250         4
  70.7500         7
  70.7750         3
  70.8000         7
  70.8250         3
  70.8500         5
  70.8750         4
  70.9000         9
  70.9250         3
  70.9500         8
  70.9750         9
  71.0000         1
  71.0250         8
  71.0500         6
  71.0750         3
  71.1000         3
  71.1250         3
  71.1500         4
  71.1750         3
  71.2000         9
  71.2250         3
  71.2500         2
  71.2750         4
  71.3000         7
  71.3250         7
  71.3500         5
  71.3750         7
  71.4000         5
  71.4250         9
  71.4500         2
  71.4750         5
  71.5000         9
  71.5250         2
  71.5500         5
  71.5750         5
  71.6000         2
  71.6250         4
  71.6500         5
  71.6750         7
  71.7000         4
  71.7250         2
  71.7500         4
  71.7750         4
  71.8000         7
  71.8250         3
  71.8500         5
  71.8750         5
  71.9000         6
  71.9250         6
  71.9500        11
  71.9750         6
  72.0000         8
  72.0250         4
  72.0500         9
  72.0750        10
  72.1000         3
  72.1250         3
  72.1500         4
  72.1750         9
  72.2000         2
  72.2250         8
  72.2500         6
  72.2750         8
  72.3000         7
  72.3250        15
  72.3500         8
  72.3750        12
  72.4000        26
  72.4250        47
  72.4500        86
  72.4750        82
  72.5000        80
  72.5250        48
  72.5500        40
  72.5750        36
  72.6000        24
  72.6250        31
  72.6500        37
  72.6750        30
  72.7000        30
  72.7250        33
  72.7500        21
  72.7750        26
  72.8000        14
  72.8250        14
  72.8500         8
  72.8750        11
  72.9000         8
  72.9250         4
  72.9500         3
  72.9750         9
  73.0000         9
  73.0250        11
  73.0500         8
  73.0750         4
  73.1000         7
  73.1250         7
  73.1500        23
  73.1750        22
  73.2000        37
  73.2250        45
  73.2500        52
  73.2750        30
  73.3000        36
  73.3250        24
  73.3500        21
  73.3750        22
  73.4000        23
  73.4250        24
  73.4500        24
  73.4750        28
  73.5000        24
  73.5250        14
  73.5500        16
  73.5750        12
  73.6000         6
  73.6250         7
  73.6500         6
  73.6750         6
  73.7000         7
  73.7250         5
  73.7500         7
  73.7750         6
  73.8000         3
  73.8250         4
  73.8500         4
  73.8750         9
  73.9000         1
  73.9250         1
  73.9500         5
  73.9750         6
  74.0000         2
  74.0250         7
  74.0500         9
  74.0750         3
  74.1000         8
  74.1250         8
  74.1500         3
  74.1750         3
  74.2000         6
  74.2250         3
  74.2500         5
  74.2750         2
  74.3000         4
  74.3250         6
  74.3500         3
  74.3750         5
  74.4000         6
  74.4250         3
  74.4500         4
  74.4750         2
  74.5000         6
  74.5250         3
  74.5500         5
  74.5750         3
  74.6000         5
  74.6250         8
  74.6500         6
  74.6750         2
  74.7000         3
  74.7250         4
  74.7500         4
  74.7750         2
  74.8000         6
  74.8250         4
  74.8500         6
  74.8750         5
  74.9000         2
  74.9250         2
  74.9500         5
  74.9750         1
  75.0000         4
  75.0250         7
  75.0500         5
  75.0750         5
  75.1000         4
  75.1250         7
  75.1500         5
  75.1750         3
  75.2000         2
  75.2250         4
  75.2500         3
  75.2750         2
  75.3000         2
  75.3250         3
  75.3500         5
  75.3750         3
  75.4000         4
  75.4250         4
  75.4500         2
  75.4750         4
  75.5000         3
  75.5250         2
  75.5500         3
  75.5750         2
  75.6000         2
  75.6250         6
  75.6500         1
  75.6750         3
  75.7000         2
  75.7250         5
  75.7500         5
  75.7750         8
  75.8000         2
  75.8250         2
  75.8500         5
  75.8750         5
  75.9000         1
  75.9250         5
  75.9500         5
  75.9750         3
  76.0000         0
  76.0250         4
  76.0500         7
  76.0750         4
  76.1000         5
  76.1250         2
  76.1500         2
  76.1750         4
  76.2000         4
  76.2250         4
  76.2500         7
  76.2750         5
  76.3000         2
  76.3250         3
  76.3500         3
  76.3750         2
  76.4000         1
  76.4250         8
  76.4500         5
  76.4750         3
  76.5000         7
  76.5250         2
  76.5500         4
  76.5750         6
  76.6000         3
  76.6250         6
  76.6500         5
  76.6750         4
  76.7000         4
  76.7250         5
  76.7500         4
  76.7750         4
  76.8000         6
  76.8250         6
  76.8500         1
  76.8750         9
  76.9000         2
  76.9250         2
  76.9500         5
  76.9750         4
  77.0000         6
  77.0250         1
  77.0500         3
  77.0750         2
  77.1000         4
  77.1250         2
  77.1500         5
  77.1750         4
  77.2000         1
  77.2250         6
  77.2500         1
  77.2750         4
  77.3000         3
  77.3250         2
  77.3500        12
  77.3750         5
  77.4000        11
  77.4250         4
  77.4500         2
  77.4750         5
  77.5000         4
  77.5250         4
  77.5500         7
  77.5750         5
  77.6000         2
  77.6250         2
  77.6500         3
  77.6750         4
  77.7000         1
  77.7250         6
  77.7500         3
  77.7750         4
  77.8000         5
  77.8250         7
  77.8500         3
  77.8750         4
  77.9000         6
  77.9250         1
  77.9500         4
  77.9750         3
  78.0000         3
  78.0250         4
  78.0500         3
  78.0750         3
  78.1000         5
  78.1250         4
  78.1500         3
  78.1750         5
  78.2000         3
  78.2250         4
  78.2500         6
  78.2750         6
  78.3000         8
  78.3250         5
  78.3500         3
  78.3750         4
  78.4000         2
  78.4250         2
  78.4500         5
  78.4750         1
  78.5000         4
  78.5250         3
  78.5500         2
  78.5750         7
  78.6000         3
  78.6250         3
  78.6500         7
  78.6750         2
  78.7000         2
  78.7250         5
  78.7500         3
  78.7750         6
  78.8000         3
  78.8250         6
  78.8500         3
  78.8750         2
  78.9000         6
  78.9250         3
  78.9500         2
  78.9750         7
  79.0000         5
  79.0250         7
  79.0500         1
  79.0750         4
  79.1000         4
  79.1250         6
  79.1500         2
  79.1750         6
  79.2000         3
  79.2250         6
  79.2500         6
  79.2750         8
  79.3000         8
  79.3250         8
  79.3500         4
  79.3750         9
  79.4000        11
  79.4250         8
  79.4500        16
  79.4750        17
  79.5000        33
  79.5250        35
  79.5500        68
  79.5750        57
  79.6000        61
  79.6250        49
  79.6500        38
  79.6750        33
  79.7000        32
  79.7250        22
  79.7500        17
  79.7750        24
  79.8000        28
  79.8250        33
  79.8500        35
  79.8750        16
  79.9000        17
  79.9250        20
  79.9500        15
  79.9750        10
  80.0000         9
  80.0250         5
  80.0500         6
  80.0750         3
  80.1000         8
  80.1250         7
  80.1500         4
  80.1750         3
  80.2000         2
  80.2250         3
  80.2500         6
  80.2750         0
  80.3000         5
  80.3250         4
  80.3500         3
  80.3750         7
  80.4000         1
  80.4250         3
  80.4500         1
  80.4750         4
  80.5000         3
  80.5250         3
  80.5500         6
  80.5750         4
  80.6000         1
  80.6250         5
  80.6500         2
  80.6750         3
  80.7000         3
  80.7250         1
  80.7500         3
  80.7750         2
  80.8000         3
  80.8250         4
  80.8500         8
  80.8750         3
  80.9000         5
  80.9250         2
  80.9500         7
  80.9750         0
  81.0000         1
  81.0250         4
  81.0500         5
  81.0750         2
  81.1000         4
  81.1250         5
  81.1500         6
  81.1750         4
  81.2000         5
  81.2250         1
  81.2500         2
  81.2750         0
  81.3000         4
  81.3250         4
  81.3500         3
  81.3750         2
  81.4000         4
  81.4250         5
  81.4500         4
  81.4750         4
  81.5000         2
  81.5250         5
  81.5500         2
  81.5750         4
  81.6000         5
  81.6250         6
  81.6500         5
  81.6750         3
  81.7000         4
  81.7250         6
  81.7500         2
  81.7750         6
  81.8000         3
  81.8250         1
  81.8500         1
  81.8750         2
  81.9000         0
  81.9250         4
  81.9500         4
  81.9750         1
  82.0000         3
  82.0250         5
  82.0500         3
  82.0750         2
  82.1000         2
  82.1250         5
  82.1500         3
  82.1750         4
  82.2000         5
  82.2250         1
  82.2500         3
  82.2750         5
  82.3000         4
  82.3250         4
  82.3500         3
  82.3750         1
  82.4000         2
  82.4250         3
  82.4500         2
  82.4750         4
  82.5000         1
  82.5250         1
  82.5500         3
  82.5750         4
  82.6000         4
  82.6250         1
  82.6500         2
  82.6750         4
  82.7000         5
  82.7250         4
  82.7500         3
  82.7750         6
  82.8000         3
  82.8250         6
  82.8500         6
  82.8750         3
  82.9000         2
  82.9250         3
  82.9500         5
  82.9750         4
  83.0000         6
  83.0250         1
  83.0500         0
  83.0750         3
  83.1000         3
  83.1250         2
  83.1500         5
  83.1750         7
  83.2000         3
  83.2250         5
  83.2500         6
  83.2750         4
  83.3000         6
  83.3250         2
  83.3500         2
  83.3750         3
  83.4000         4
  83.4250         6
  83.4500         5
  83.4750         4
  83.5000         4
  83.5250         4
  83.5500         6
  83.5750         5
  83.6000         6
  83.6250         4
  83.6500         1
  83.6750         4
  83.7000         1
  83.7250         6
  83.7500         5
  83.7750         3
  83.8000         4
  83.8250         4
  83.8500         5
  83.8750         6
  83.9000         5
  83.9250         2
  83.9500         0
  83.9750         3
  84.0000         3
  84.0250         4
  84.0500         4
  84.0750         7
  84.1000         5
  84.1250         4
  84.1500         5
  84.1750         6
  84.2000         2
  84.2250         2
  84.2500         4
  84.2750         5
  84.3000         3
  84.3250         1
  84.3500         2
  84.3750         2
  84.4000         0
  84.4250         2
  84.4500         3
  84.4750         3
  84.5000         3
  84.5250         2
  84.5500         3
  84.5750         6
  84.6000         8
  84.6250         4
  84.6500         4
  84.6750         2
  84.7000         5
  84.7250         4
  84.7500         5
  84.7750         3
  84.8000         4
  84.8250         3
  84.8500         3
  84.8750         2
  84.9000         6
  84.9250         3
  84.9500         5
  84.9750         3
  85.0000         6
  85.0250         6
  85.0500         0
  85.0750         6
  85.1000         2
  85.1250         4
  85.1500         3
  85.1750         4
  85.2000         6
  85.2250         2
  85.2500         2
  85.2750         8
  85.3000         5
  85.3250         6
  85.3500         4
  85.3750         3
  85.4000         3
  85.4250         7
  85.4500         4
  85.4750         4
  85.5000         9
  85.5250         1
  85.5500         2
  85.5750         3
  85.6000         2
  85.6250         2
  85.6500         2
  85.6750         5
  85.7000         4
  85.7250         2
  85.7500         1
  85.7750         6
  85.8000         3
  85.8250         4
  85.8500         4
  85.8750         3
  85.9000         4
  85.9250         2
  85.9500         1
  85.9750         3
  86.0000         6
  86.0250         9
  86.0500         2
  86.0750         4
  86.1000         3
  86.1250         4
  86.1500         4
  86.1750         4
  86.2000         3
  86.2250         2
  86.2500         2
  86.2750         3
  86.3000         8
  86.3250         4
  86.3500         3
  86.3750         3
  86.4000         6
  86.4250         0
  86.4500         2
  86.4750         4
  86.5000         1
  86.5250         7
  86.5500         7
  86.5750         5
  86.6000         3
  86.6250        10
  86.6500         3
  86.6750         2
  86.7000         4
  86.7250         1
  86.7500         1
  86.7750         1
  86.8000         1
  86.8250         2
  86.8500         5
  86.8750         2
  86.9000         5
  86.9250         1
  86.9500         2
  86.9750         6
  87.0000         3
  87.0250         2
  87.0500         6
  87.0750         5
  87.1000         7
  87.1250         6
  87.1500         4
  87.1750         1
  87.2000         3
  87.2250         6
  87.2500         2
  87.2750         3
  87.3000         4
  87.3250         7
  87.3500         2
  87.3750         3
  87.4000         8
  87.4250         3
  87.4500         1
  87.4750         8
  87.5000         5
  87.5250         4
  87.5500         4
  87.5750         3
  87.6000         6
  87.6250         5
  87.6500         1
  87.6750         1
  87.7000         4
  87.7250         4
  87.7500         0
  87.7750         1
  87.8000         2
  87.8250         6
  87.8500         5
  87.8750         3
  87.9000         2
  87.9250         2
  87.9500         2
  87.9750         4
  88.0000         7
  88.0250         3
  88.0500         7
  88.0750         7
  88.1000         1
  88.1250         5
  88.1500         2
  88.1750         4
  88.2000         3
  88.2250         3
  88.2500        10
  88.2750         2
  88.3000         2
  88.3250         2
  88.3500         2
  88.3750         6
  88.4000         5
  88.4250         9
  88.4500         2
  88.4750         3
  88.5000         1
  88.5250         3
  88.5500         4
  88.5750         4
  88.6000         2
  88.6250         2
  88.6500         2
  88.6750         5
  88.7000         2
  88.7250         1
  88.7500         1
  88.7750         4
  88.8000         8
  88.8250         5
  88.8500         8
  88.8750         5
  88.9000         3
  88.9250         4
  88.9500         1
  88.9750         1
  89.0000         4
  89.0250         4
  89.0500         2
  89.0750         2
  89.1000         6
  89.1250         9
  89.1500         3
  89.1750         0
  89.2000         3
  89.2250         9
  89.2500         5
  89.2750         4
  89.3000        11
  89.3250        12
  89.3500         9
  89.3750        15
  89.4000         8
  89.4250        26
  89.4500        45
  89.4750        47
  89.5000        40
  89.5250        29
  89.5500        40
  89.5750        22
  89.6000        20
  89.6250        15
  89.6500        12
  89.6750        14
  89.7000        19
  89.7250        18
  89.7500        23
  89.7750        21
  89.8000        15
  89.8250        17
  89.8500        12
  89.8750         9
  89.9000         9
  89.9250         3
  89.9500         8
  89.9750         3
  90.0000         4
  90.0250         2
  90.0500         2
  90.0750         4
  90.1000         5
  90.1250         7
  90.1500         4
  90.1750         6
  90.2000         4
  90.2250         5
  90.2500         0
  90.2750         6
  90.3000         3
  90.3250         4
  90.3500         3
  90.3750         4
  90.4000         2
  90.4250         4
  90.4500         5
  90.4750         7
  90.5000         2
  90.5250         1
  90.5500         4
  90.5750         6
  90.6000         2
  90.6250         2
  90.6500         4
  90.6750         1
  90.7000         5
  90.7250         2
  90.7500         5
  90.7750         4
  90.8000         3
  90.8250         3
  90.8500         8
  90.8750         4
  90.9000         3
  90.9250         4
  90.9500         6
  90.9750         4
  91.0000         2
  91.0250         1
  91.0500         5
  91.0750         1
  91.1000         8
  91.1250         2
  91.1500         3
  91.1750         5
  91.2000         3
  91.2250         2
  91.2500         3
  91.2750         4
  91.3000         5
  91.3250         5
  91.3500         3
  91.3750         4
  91.4000         5
  91.4250         5
  91.4500         4
  91.4750         5
  91.5000         5
  91.5250         6
  91.5500         7
  91.5750         4
  91.6000         3
  91.6250         1
  91.6500         0
  91.6750         3
  91.7000         4
  91.7250         5
  91.7500         5
  91.7750         5
  91.8000         1
  91.8250         0
  91.8500         4
  91.8750         2
  91.9000         4
  91.9250         4
  91.9500         4
  91.9750         2
  92.0000         2
  92.0250         2
  92.0500         3
  92.0750         1
  92.1000         3
  92.1250         3
  92.1500         5
  92.1750         5
  92.2000         5
  92.2250         2
  92.2500         6
  92.2750         2
  92.3000         2
  92.3250         6
  92.3500         3
  92.3750         2
  92.4000         8
  92.4250         8
  92.4500         4
  92.4750         2
  92.5000         2
  92.5250         2
  92.5500         4
  92.5750         4
  92.6000         6
  92.6250         2
  92.6500         4
  92.6750         4
  92.7000         2
  92.7250         3
  92.7500         3
  92.7750         4
  92.8000         4
  92.8250         2
  92.8500         8
  92.8750         2
  92.9000         2
  92.9250         5
  92.9500         3
  92.9750         4
  93.0000         4
  93.0250         4
  93.0500         5
  93.0750         5
  93.1000         3
  93.1250         3
  93.1500         5
  93.1750         4
  93.2000         5
  93.2250         2
  93.2500         4
  93.2750         3
  93.3000         2
  93.3250         7
  93.3500         3
  93.3750         7
  93.4000         5
  93.4250         1
  93.4500         6
  93.4750         4
  93.5000         2
  93.5250         4
  93.5500         5
  93.5750         2
  93.6000         2
  93.6250         2
  93.6500         3
  93.6750         5
  93.7000         5
  93.7250         2
  93.7500         5
  93.7750         4
  93.8000         4
  93.8250         3
  93.8500         5
  93.8750         4
  93.9000         2
  93.9250         2
  93.9500         3
  93.9750         5
  94.0000         4
  94.0250         2
  94.0500         3
  94.0750         0
  94.1000         4
  94.1250         4
  94.1500         3
  94.1750         4
  94.2000         3
  94.2250         3
  94.2500         5
  94.2750         2
  94.3000         8
  94.3250         3
  94.3500         1
  94.3750         5
  94.4000         6
  94.4250         6
  94.4500         1
  94.4750         0
  94.5000         5
  94.5250         6
  94.5500         6
  94.5750         6
  94.6000         8
  94.6250         6
  94.6500         9
  94.6750         6
  94.7000         3
  94.7250         6
  94.7500         4
  94.7750         3
  94.8000         4
  94.8250         6
  94.8500         4
  94.8750         5
  94.9000         4
  94.9250         2
  94.9500         2
  94.9750         2
  95.0000         5
  95.0250         3
  95.0500         3
  95.0750         7
  95.1000         1
  95.1250         6
  95.1500        15
  95.1750        17
  95.2000        11
  95.2250        18
  95.2500        14
  95.2750        12
  95.3000         8
  95.3250         8
  95.3500         7
  95.3750        15
  95.4000        10
  95.4250         8
  95.4500         4
  95.4750        14
  95.5000         7
  95.5250        14
  95.5500         9
  95.5750        10
  95.6000        24
  95.6250        22
  95.6500        23
  95.6750        20
  95.7000        12
  95.7250        14
  95.7500        13
  95.7750        11
  95.8000         6
  95.8250         7
  95.8500         8
  95.8750         9
  95.9000        12
  95.9250        13
  95.9500        14
  95.9750        12
  96.0000        12
  96.0250         6
  96.0500         3
  96.0750         4
  96.1000         5
  96.1250         5
  96.1500         6
  96.1750         3
  96.2000         2
  96.2250         9
  96.2500         5
  96.2750         4
  96.3000         4
  96.3250         2
  96.3500        11
  96.3750         2
  96.4000         0
  96.4250         6
  96.4500         7
  96.4750         4
  96.5000         5
  96.5250         4
  96.5500         6
  96.5750         2
  96.6000         2
  96.6250         4
  96.6500         7
  96.6750        12
  96.7000        14
  96.7250        24
  96.7500        18
  96.7750        22
  96.8000        21
  96.8250        11
  96.8500         3
  96.8750        12
  96.9000         5
  96.9250         6
  96.9500        11
  96.9750         7
  97.0000        11
  97.0250         8
  97.0500         8
  97.0750         5
  97.1000        11
  97.1250        12
  97.1500         6
  97.1750         7
  97.2000         9
  97.2250         4
  97.2500         6
  97.2750         5
  97.3000         7
  97.3250         6
  97.3500         6
  97.3750        12
  97.4000         9
  97.4250        12
  97.4500        19
  97.4750        25
  97.5000        28
  97.5250        25
  97.5500        25
  97.5750        15
  97.6000        12
  97.6250        10
  97.6500         8
  97.6750        14
  97.7000        11
  97.7250         7
  97.7500        12
  97.7750        18
  97.8000        15
  97.8250        15
  97.8500        14
  97.8750         9
  97.9000         8
  97.9250        13
  97.9500         6
  97.9750         3
  98.0000         6
  98.0250         5
  98.0500         6
  98.0750         1
  98.1000         4
  98.1250         7
  98.1500         6
  98.1750         1
  98.2000         6
  98.2250         2
  98.2500         4
  98.2750         3
  98.3000         2
  98.3250         1
  98.3500         4
  98.3750         5
  98.4000         2
  98.4250         5
  98.4500         4
  98.4750         7
  98.5000         4
  98.5250         3
  98.5500         4
  98.5750         4
  98.6000         5
  98.6250         4
  98.6500         4
  98.6750         5
  98.7000         6
  98.7250         3
  98.7500         4
  98.7750         2
  98.8000         8
  98.8250         4
  98.8500         4
  98.8750         3
  98.9000         3
  98.9250         4
  98.9500         6
  98.9750         2
  99.0000         5
  99.0250         3
  99.0500         2
  99.0750         3
  99.1000         4
  99.1250         2
  99.1500         3
  99.1750         5
  99.2000         0
  99.2250         7
  99.2500         2
  99.2750         6
  99.3000         7
  99.3250         2
  99.3500         4
  99.3750         1
  99.4000         2
  99.4250         3
  99.4500         4
  99.4750         4
  99.5000         6
  99.5250         1
  99.5500        12
  99.5750         4
  99.6000         2
  99.6250         6
  99.6500         1
  99.6750         5
  99.7000         2
  99.7250         5
  99.7500         2
  99.7750         2
  99.8000         9
  99.8250         5
  99.8500         5
  99.8750         6
  99.9000         3
  99.9250         3
  99.9500         4
  99.9750         6
 100.0000         3
 100.0250         1
 100.0500         2
 100.0750         6
 100.1000         3
 100.1250         7
 100.1500         5
 100.1750         3
 100.2000         2
 100.2250         4
 100.2500         4
 100.2750         4
 100.3000         2
 100.3250         7
 100.3500         4
 100.3750         5
 100.4000         8
 100.4250         5
 100.4500         9
 100.4750         4
 100.5000         8
 100.5250         2
 100.5500         1
 100.5750         4
 100.6000         4
 100.6250         5
 100.6500         6
 100.6750         5
 100.7000         7
 100.7250         3
 100.7500         6
 100.7750         3
 100.8000         7
 100.8250         2
 100.8500         2
 100.8750         1
 100.9000         5
 100.9250         2
 100.9500         8
 100.9750         4
 101.0000         2
 101.0250         4
 101.0500         0
 101.0750         5
 101.1000         3
 101.1250         7
 101.1500         2
 101.1750         1
 101.2000         4
 101.2250         4
 101.2500         9
 101.2750         1
 101.3000         3
 101.3250         3
 101.3500         5
 101.3750         4
 101.4000         6
 101.4250         5
 101.4500         3
 101.4750         4
 101.5000         5
 101.5250         4
 101.5500         3
 101.5750         0
 101.6000         2
 101.6250         2
 101.6500         2
 101.6750         2
 101.7000        10
 101.7250         3
 101.7500         4
 101.7750         5
 101.8000         4
 101.8250         5
 101.8500         8
 101.8750         7
 101.9000         1
 101.9250         7
 101.9500         7
 101.9750         2
 102.0000         6
 102.0250         5
 102.0500         6
 102.0750         5
 102.1000         2
 102.1250         5
 102.1500         8
 102.1750         8
 102.2000         5
 102.2250         6
 102.2500         2
 102.2750         5
 102.3000         1
 102.3250        12
 102.3500         5
 102.3750         4
 102.4000         8
 102.4250         3
 102.4500         3
 102.4750         5
 102.5000         5
 102.5250         4
 102.5500         2
 102.5750         2
 102.6000         5
 102.6250         4
 102.6500         5
 102.6750         5
 102.7000         3
 102.7250         7
 102.7500         4
 102.7750         7
 102.8000         4
 102.8250         7
 102.8500         7
 102.8750         4
 102.9000         6
 102.9250         4
 102.9500         6
 102.9750         3
 103.0000         5
 103.0250         1
 103.0500         1
 103.0750         4
 103.1000         7
 103.1250         8
 103.1500        12
 103.1750         6
 103.2000         8
 103.2250         9
 103.2500        12
 103.2750        16
 103.3000        17
 103.3250        13
 103.3500        26
 103.3750        22
 103.4000        16
 103.4250        11
 103.4500        16
 103.4750         9
 103.5000        13
 103.5250         5
 103.5500         2
 103.5750         8
 103.6000         4
 103.6250         9
 103.6500         8
 103.6750        10
 103.7000         5
 103.7250         6
 103.7500        11
 103.7750        10
 103.8000        11
 103.8250         6
 103.8500         5
 103.8750         3
 103.9000         6
 103.9250         2
 103.9500         2
 103.9750         1
 104.0000         5
 104.0250         4
 104.0500         4
 104.0750         3
 104.1000         2
 104.1250         7
 104.1500         6
 104.1750         4
 104.2000         4
 104.2250         4
 104.2500         3
 104.2750         6
 104.3000         4
 104.3250         4
 104.3500         3
 104.3750         2
 104.4000         6
 104.4250         5
 104.4500         2
 104.4750         2
 104.5000         2
 104.5250         2
 104.5500         3
 104.5750         3
 104.6000         4
 104.6250         2
 104.6500         4
 104.6750         2
 104.7000         6
 104.7250         2
 104.7500         8
 104.7750         0
 104.8000         2
 104.8250         5
 104.8500         9
 104.8750         7
 104.9000         5
 104.9250         7
 104.9500         9
 104.9750        14
 105.0000         8
 105.0250         5
 105.0500         6
 105.0750         6
 105.1000         5
 105.1250        10
 105.1500         2
 105.1750         6
 105.2000         4
 105.2250         6
 105.2500         6
 105.2750         3
 105.3000        11
 105.3250         8
 105.3500         6
 105.3750         3
 105.4000         7
 105.4250         6
 105.4500         5
 105.4750        10
 105.5000         2
 105.5250         5
 105.5500         2
 105.5750         5
 105.6000         7
 105.6250         3
 105.6500         4
 105.6750         4
 105.7000         1
 105.7250         4
 105.7500         5
 105.7750         4
 105.8000         3
 105.8250         5
 105.8500         4
 105.8750         6
 105.9000         8
 105.9250         3
 105.9500         8
 105.9750         2
 106.0000         4
 106.0250         1
 106.0500         5
 106.0750         7
 106.1000         6
 106.1250         3
 106.1500         5
 106.1750         7
 106.2000         3
 106.2250         1
 106.2500         4
 106.2750         3
 106.3000         1
 106.3250         6
 106.3500         4
 106.3750         6
 106.4000         3
 106.4250         5
 106.4500         4
 106.4750         1
 106.5000         1
 106.5250         6
 106.5500         6
 106.5750         4
 106.6000         4
 106.6250         3
 106.6500         8
 106.6750         6
 106.7000         5
 106.7250         5
 106.7500         6
 106.7750         4
 106.8000         3
 106.8250         2
 106.8500         5
 106.8750         4
 106.9000         9
 106.9250         3
 106.9500         7
 106.9750         4
 107.0000         3
 107.0250         2
 107.0500         6
 107.0750         5
 107.1000         1
 107.1250         0
 107.1500         8
 107.1750         3
 107.2000         4
 107.2250         3
 107.2500         4
 107.2750         6
 107.3000         5
 107.3250         1
 107.3500         4
 107.3750         2
 107.4000         5
 107.4250         6
 107.4500         4
 107.4750         4
 107.5000         3
 107.5250         5
 107.5500         7
 107.5750         1
 107.6000         3
 107.6250         5
 107.6500         7
 107.6750         5
 107.7000         7
 107.7250         5
 107.7500         3
 107.7750         4
 107.8000         3
 107.8250         2
 107.8500         3
 107.8750         5
 107.9000         6
 107.9250         6
 107.9500         9
 107.9750         4
 108.0000         2
 108.0250         7
 108.0500         3
 108.0750         4
 108.1000         8
 108.1250         3
 108.1500         4
 108.1750         1
 108.2000         8
 108.2250         7
 108.2500         8
 108.2750         5
 108.3000         6
 108.3250         4
 108.3500         5
 108.3750         7
 108.4000         6
 108.4250         2
 108.4500         1
 108.4750         5
 108.5000         7
 108.5250         3
 108.5500         3
 108.5750         3
 108.6000         9
 108.6250         5
 108.6500         7
 108.6750         8
 108.7000         5
 108.7250         4
 108.7500         7
 108.7750         3
 108.8000         7
 108.8250         6
 108.8500         3
 108.8750         3
 108.9000         6
 108.9250         3
 108.9500         5
 108.9750         4
 109.0000         3
 109.0250         1
 109.0500         6
 109.0750         2
 109.1000         1
 109.1250         3
 109.1500         4
 109.1750         7
 109.2000         7
 109.2250         1
 109.2500         8
 109.2750         5
 109.3000         9
 109.3250         3
 109.3500         2
 109.3750         7
 109.4000         6
 109.4250         8
 109.4500         5
 109.4750         4
 109.5000         7
 109.5250         6
 109.5500         5
 109.5750         3
 109.6000         3
 109.6250         2
 109.6500         1
 109.6750         9
 109.7000         2
 109.7250         5
 109.7500         7
 109.7750         3
 109.8000         2
 109.8250         2
 109.8500         5
 109.8750         6
 109.9000         3
 109.9250         3
 109.9500         9
 109.9750         4
 110.0000         2
