  10.0000        10
  10.0500         5
  10.1000         5
  10.1500         7
  10.2000        13
  10.2500         7
  10.3000         8
  10.3500         8
  10.4000         8
  10.4500         7
  10.5000         7
  10.5500        11
  10.6000         8
  10.6500         5
  10.7000        10
  10.7500         6
  10.8000         8
  10.8500         4
  10.9000        13
  10.9500         9
  11.0000         9
  11.0500        10
  11.1000         6
  11.1500         5
  11.2000         3
  11.2500         6
  11.3000         6
  11.3500         8
  11.4000         6
  11.4500         4
  11.5000         8
  11.5500         2
  11.6000         6
  11.6500         6
  11.7000        11
  11.7500         4
  11.8000         8
  11.8500         7
  11.9000         6
  11.9500         6
  12.0000         8
  12.0500        11
  12.1000         9
  12.1500         9
  12.2000        11
  12.2500        10
  12.3000         6
  12.3500        10
  12.4000         8
  12.4500         9
  12.5000         4
  12.5500         6
  12.6000         4
  12.6500         8
  12.7000         5
  12.7500         4
  12.8000         5
  12.8500        10
  12.9000         7
  12.9500        10
  13.0000         6
  13.0500         6
  13.1000         3
  13.1500         8
  13.2000         7
  13.2500         5
  13.3000         7
  13.3500         7
  13.4000         6
  13.4500         3
  13.5000         7
  13.5500         5
  13.6000         7
  13.6500         5
  13.7000         2
  13.7500         5
  13.8000         5
  13.8500         7
  13.9000         6
  13.9500         4
  14.0000         7
  14.0500         5
  14.1000        14
  14.1500         2
  14.2000        10
  14.2500         3
  14.3000        10
  14.3500         5
  14.4000         9
  14.4500         6
  14.5000         3
  14.5500         4
  14.6000         5
  14.6500         5
  14.7000        10
  14.7500         5
  14.8000         5
  14.8500        10
  14.9000         5
  14.9500         1
  15.0000         6
  15.0500         5
  15.1000         6
  15.1500         7
  15.2000        13
  15.2500         8
  15.3000         7
  15.3500         7
  15.4000         7
  15.4500         5
  15.5000         5
  15.5500         8
  15.6000         3
  15.6500         2
  15.7000         4
  15.7500         4
  15.8000         7
  15.8500         5
  15.9000         5
  15.9500         6
  16.0000         8
  16.0500         4
  16.1000         1
  16.1500         6
  16.2000         3
  16.2500         5
  16.3000         5
  16.3500         6
  16.4000         8
  16.4500         2
  16.5000         8
  16.5500         3
  16.6000         6
  16.6500         5
  16.7000         6
  16.7500         2
  16.8000         1
  16.8500         7
  16.9000        10
  16.9500         8
  17.0000         9
  17.0500         9
  17.1000         3
  17.1500         5
  17.2000         7
  17.2500         5
  17.3000         6
  17.3500         6
  17.4000         2
  17.4500         7
  17.5000         8
  17.5500         7
  17.6000         6
  17.6500         4
  17.7000         6
  17.7500         4
  17.8000         4
  17.8500         5
  17.9000         9
  17.9500         5
  18.0000         3
  18.0500         5
  18.1000         6
  18.1500         6
  18.2000         5
  18.2500         4
  18.3000         8
  18.3500         6
  18.4000         4
  18.4500         7
  18.5000         7
  18.5500         4
  18.6000         6
  18.6500         7
  18.7000         5
  18.7500         8
  18.8000         6
  18.8500         9
  18.9000        11
  18.9500        11
  19.0000         2
  19.0500         4
  19.1000         4
  19.1500         4
  19.2000         4
  19.2500         5
  19.3000         8
  19.3500        10
  19.4000         6
  19.4500         7
  19.5000         2
  19.5500         5
  19.6000         3
  19.6500         7
  19.7000         9
  19.7500         5
  19.8000         9
  19.8500         2
  19.9000         3
  19.9500         3
  20.0000         6
  20.0500         6
  20.1000         2
  20.1500         6
  20.2000         3
  20.2500         5
  20.3000         0
  20.3500         6
  20.4000         4
  20.4500         8
  20.5000         7
  20.5500         4
  20.6000         3
  20.6500         3
  20.7000         9
  20.7500         7
  20.8000         6
  20.8500         8
  20.9000         6
  20.9500         5
  21.0000         7
  21.0500         4
  21.1000         6
  21.1500         2
  21.2000         5
  21.2500         6
  21.3000         4
  21.3500         4
  21.4000         8
  21.4500         5
  21.5000         8
  21.5500         3
  21.6000         2
  21.6500         3
  21.7000        10
  21.7500         7
  21.8000         6
  21.8500         4
  21.9000         7
  21.9500         3
  22.0000         4
  22.0500         7
  22.1000         3
  22.1500         7
  22.2000         2
  22.2500         5
  22.3000         5
  22.3500         5
  22.4000         4
  22.4500         6
  22.5000         6
  22.5500         8
  22.6000         4
  22.6500         9
  22.7000         4
  22.7500         5
  22.8000         2
  22.8500         6
  22.9000         6
  22.9500         3
  23.0000         7
  23.0500         6
  23.1000         6
  23.1500         6
  23.2000         8
  23.2500         5
  23.3000         5
  23.3500         5
  23.4000         8
  23.4500         5
  23.5000         2
  23.5500         3
  23.6000         9
  23.6500         4
  23.7000         4
  23.7500         4
  23.8000         5
  23.8500         4
  23.9000         2
  23.9500         5
  24.0000         6
  24.0500         4
  24.1000         7
  24.1500         5
  24.2000         7
  24.2500         8
  24.3000         7
  24.3500         6
  24.4000         3
  24.4500         4
  24.5000         1
  24.5500         7
  24.6000         3
  24.6500         9
  24.7000         2
  24.7500         8
  24.8000         2
  24.8500         6
  24.9000         9
  24.9500         5
  25.0000         3
  25.0500         6
  25.1000         3
  25.1500         6
  25.2000         3
  25.2500         4
  25.3000         8
  25.3500         1
  25.4000         5
  25.4500         5
  25.5000         5
  25.5500         7
  25.6000         9
  25.6500         3
  25.7000         4
  25.7500         4
  25.8000         9
  25.8500         5
  25.9000         5
  25.9500         2
  26.0000         7
  26.0500         2
  26.1000         2
  26.1500         2
  26.2000         8
  26.2500         3
  26.3000         4
  26.3500         5
  26.4000         5
  26.4500         7
  26.5000         8
  26.5500         7
  26.6000         4
  26.6500         4
  26.7000         1
  26.7500         4
  26.8000         7
  26.8500        10
  26.9000         4
  26.9500         7
  27.0000         3
  27.0500         3
  27.1000         7
  27.1500        11
  27.2000         3
  27.2500         4
  27.3000         8
  27.3500         7
  27.4000         6
  27.4500         4
  27.5000         6
  27.5500        10
  27.6000         9
  27.6500         6
  27.7000         4
  27.7500         1
  27.8000         1
  27.8500         7
  27.9000         5
  27.9500         8
  28.0000         4
  28.0500         4
  28.1000         5
  28.1500         3
  28.2000         7
  28.2500         6
  28.3000         4
  28.3500         4
  28.4000         5
  28.4500         5
  28.5000         4
  28.5500         5
  28.6000         6
  28.6500         8
  28.7000         6
  28.7500         8
  28.8000         4
  28.8500         5
  28.9000         7
  28.9500         4
  29.0000         4
  29.0500         5
  29.1000         3
  29.1500         3
  29.2000         7
  29.2500         2
  29.3000         4
  29.3500         5
  29.4000         5
  29.4500         6
  29.5000         4
  29.5500         7
  29.6000         6
  29.6500         6
  29.7000         3
  29.7500         5
  29.8000         6
  29.8500         9
  29.9000         3
  29.9500         6
  30.0000         8
  30.0500         4
  30.1000        11
  30.1500         7
  30.2000         5
  30.2500         6
  30.3000         9
  30.3500        10
  30.4000         6
  30.4500         5
  30.5000         9
  30.5500         7
  30.6000         7
  30.6500         2
  30.7000         9
  30.7500         2
  30.8000         4
  30.8500         5
  30.9000         8
  30.9500         4
  31.0000         5
  31.0500         3
  31.1000         5
  31.1500         6
  31.2000         8
  31.2500         3
  31.3000         7
  31.3500         6
  31.4000         7
  31.4500         8
  31.5000         5
  31.5500         4
  31.6000         4
  31.6500         5
  31.7000         7
  31.7500         7
  31.8000         4
  31.8500         6
  31.9000         8
  31.9500         3
  32.0000         6
  32.0500         3
  32.1000        10
  32.1500         4
  32.2000         5
  32.2500         3
  32.3000        10
  32.3500         4
  32.4000         4
  32.4500         3
  32.5000         4
  32.5500         5
  32.6000         3
  32.6500         5
  32.7000         5
  32.7500         9
  32.8000         2
  32.8500         5
  32.9000         2
  32.9500         7
  33.0000         5
  33.0500         5
  33.1000         4
  33.1500         1
  33.2000         7
  33.2500         4
  33.3000         5
  33.3500         6
  33.4000         6
  33.4500         4
  33.5000         7
  33.5500         4
  33.6000         7
  33.6500         3
  33.7000         6
  33.7500         4
  33.8000         8
  33.8500         6
  33.9000         8
  33.9500        11
  34.0000         1
  34.0500         5
  34.1000         7
  34.1500         4
  34.2000        12
  34.2500         4
  34.3000         1
  34.3500         3
  34.4000         3
  34.4500         7
  34.5000         3
  34.5500         4
  34.6000         6
  34.6500         5
  34.7000         7
  34.7500         9
  34.8000         2
  34.8500         6
  34.9000         2
  34.9500         4
  35.0000         5
  35.0500        12
  35.1000         3
  35.1500         8
  35.2000         6
  35.2500         4
  35.3000        11
  35.3500         6
  35.4000         7
  35.4500         6
  35.5000         3
  35.5500         9
  35.6000         3
  35.6500         9
  35.7000         8
  35.7500         5
  35.8000         4
  35.8500         6
  35.9000         5
  35.9500         6
  36.0000         5
  36.0500         3
  36.1000         6
  36.1500         6
  36.2000         6
  36.2500         4
  36.3000         2
  36.3500         7
  36.4000         4
  36.4500         7
  36.5000         7
  36.5500         6
  36.6000        10
  36.6500         9
  36.7000         4
  36.7500        10
  36.8000         6
  36.8500         5
  36.9000         6
  36.9500        10
  37.0000         4
  37.0500         6
  37.1000         5
  37.1500         4
  37.2000        10
  37.2500        11
  37.3000        14
  37.3500         8
  37.4000         8
  37.4500        12
  37.5000        14
  37.5500         7
  37.6000         9
  37.6500         4
  37.7000         4
  37.7500         9
  37.8000         7
  37.8500         5
  37.9000         5
  37.9500         8
  38.0000         8
  38.0500         5
  38.1000         4
  38.1500        11
  38.2000         8
  38.2500         5
  38.3000         8
  38.3500         9
  38.4000         7
  38.4500         5
  38.5000         8
  38.5500         4
  38.6000         4
  38.6500        11
  38.7000         3
  38.7500         8
  38.8000         4
  38.8500         6
  38.9000         5
  38.9500         6
  39.0000         3
  39.0500         4
  39.1000         8
  39.1500         5
  39.2000         3
  39.2500         6
  39.3000         8
  39.3500        14
  39.4000        13
  39.4500         5
  39.5000         0
  39.5500        10
  39.6000         8
  39.6500         9
  39.7000         8
  39.7500         6
  39.8000         3
  39.8500         3
  39.9000         8
  39.9500         6
  40.0000         5
  40.0500         7
  40.1000         3
  40.1500         1
  40.2000         3
  40.2500         6
  40.3000         3
  40.3500        10
  40.4000         1
  40.4500         3
  40.5000        10
  40.5500        13
  40.6000         7
  40.6500         6
  40.7000         9
  40.7500         5
  40.8000         7
  40.8500         4
  40.9000         9
  40.9500         5
  41.0000         9
  41.0500         7
  41.1000         7
  41.1500         7
  41.2000         7
  41.2500        11
  41.3000         8
  41.3500        10
  41.4000        13
  41.4500        11
  41.5000         4
  41.5500         9
  41.6000         2
  41.6500         9
  41.7000         5
  41.7500         4
  41.8000        11
  41.8500        10
  41.9000        11
  41.9500         9
  42.0000         6
  42.0500         9
  42.1000         8
  42.1500        18
  42.2000        10
  42.2500         7
  42.3000        10
  42.3500        14
  42.4000        10
  42.4500        11
  42.5000        16
  42.5500        11
  42.6000        16
  42.6500        21
  42.7000        14
  42.7500        18
  42.8000        15
  42.8500        28
  42.9000        24
  42.9500        30
  43.0000        21
  43.0500        26
  43.1000        27
  43.1500        33
  43.2000        48
  43.2500        68
  43.3000        69
  43.3500       122
  43.4000       133
  43.4500       185
  43.5000       260
  43.5500       445
  43.6000       655
  43.6500       848
  43.7000       985
  43.7500       997
  43.8000       910
  43.8500       719
  43.9000       494
  43.9500       328
  44.0000       245
  44.0500       128
  44.1000        82
  44.1500        64
  44.2000        48
  44.2500        37
  44.3000        45
  44.3500        26
  44.4000        31
  44.4500        24
  44.5000        22
  44.5500        17
  44.6000        24
  44.6500        25
  44.7000        16
  44.7500        16
  44.8000        19
  44.8500        16
  44.9000        15
  44.9500        12
  45.0000        15
  45.0500        16
  45.1000        12
  45.1500         9
  45.2000         6
  45.2500         8
  45.3000        11
  45.3500        15
  45.4000        12
  45.4500         4
  45.5000        10
  45.5500         8
  45.6000         5
  45.6500        12
  45.7000         5
  45.7500         6
  45.8000         9
  45.8500        13
  45.9000         6
  45.9500         7
  46.0000         5
  46.0500        11
  46.1000         3
  46.1500        10
  46.2000         9
  46.2500         8
  46.3000         8
  46.3500         5
  46.4000         9
  46.4500         4
  46.5000         5
  46.5500         6
  46.6000         4
  46.6500        10
  46.7000         8
  46.7500         9
  46.8000         6
  46.8500         6
  46.9000         3
  46.9500         5
  47.0000         9
  47.0500         7
  47.1000         7
  47.1500         7
  47.2000        10
  47.2500         7
  47.3000         7
  47.3500         8
  47.4000         7
  47.4500         5
  47.5000         5
  47.5500         4
  47.6000         4
  47.6500         7
  47.7000         9
  47.7500         7
  47.8000         7
  47.8500         8
  47.9000         6
  47.9500         7
  48.0000         7
  48.0500         6
  48.1000         6
  48.1500         3
  48.2000         7
  48.2500        10
  48.3000         9
  48.3500         4
  48.4000         3
  48.4500         4
  48.5000         7
  48.5500         1
  48.6000        10
  48.6500         8
  48.7000         7
  48.7500        12
  48.8000         4
  48.8500        13
  48.9000         6
  48.9500        11
  49.0000        10
  49.0500        12
  49.1000         9
  49.1500        14
  49.2000        18
  49.2500        18
  49.3000         9
  49.3500        13
  49.4000        13
  49.4500         3
  49.5000        14
  49.5500        14
  49.6000        14
  49.6500        12
  49.7000        13
  49.7500        13
  49.8000        16
  49.8500        13
  49.9000        14
  49.9500        11
  50.0000        19
  50.0500        19
  50.1000        14
  50.1500        23
  50.2000        19
  50.2500        17
  50.3000        22
  50.3500        35
  50.4000        41
  50.4500        57
  50.5000        51
  50.5500        75
  50.6000        91
  50.6500       120
  50.7000       192
  50.7500       187
  50.8000       246
  50.8500       275
  50.9000       289
  50.9500       312
  51.0000       286
  51.0500       278
  51.1000       222
  51.1500       162
  51.2000       124
  51.2500       116
  51.3000        75
  51.3500        67
  51.4000        61
  51.4500        34
  51.5000        36
  51.5500        21
  51.6000        18
  51.6500        15
  51.7000         7
  51.7500        26
  51.8000        14
  51.8500         8
  51.9000         9
  51.9500        13
  52.0000        11
  52.0500        13
  52.1000         8
  52.1500        16
  52.2000         8
  52.2500        10
  52.3000         7
  52.3500         6
  52.4000         6
  52.4500        15
  52.5000         7
  52.5500         6
  52.6000         9
  52.6500         9
  52.7000         3
  52.7500         7
  52.8000        10
  52.8500         6
  52.9000         3
  52.9500         4
  53.0000         7
  53.0500         6
  53.1000         4
  53.1500         5
  53.2000         5
  53.2500         8
  53.3000         9
  53.3500         9
  53.4000         6
  53.4500        10
  53.5000         4
  53.5500        10
  53.6000         9
  53.6500        10
  53.7000         6
  53.7500         3
  53.8000         9
  53.8500         8
  53.9000         5
  53.9500         8
  54.0000         4
  54.0500         6
  54.1000         6
  54.1500         4
  54.2000         6
  54.2500         5
  54.3000         6
  54.3500         5
  54.4000         6
  54.4500         3
  54.5000         6
  54.5500         4
  54.6000         7
  54.6500         6
  54.7000         0
  54.7500         7
  54.8000         7
  54.8500         7
  54.9000         5
  54.9500         4
  55.0000         3
  55.0500         7
  55.1000         6
  55.1500         6
  55.2000         5
  55.2500        10
  55.3000         1
  55.3500         4
  55.4000         7
  55.4500         7
  55.5000         7
  55.5500         5
  55.6000         3
  55.6500         9
  55.7000         6
  55.7500         7
  55.8000         8
  55.8500         5
  55.9000         4
  55.9500         6
  56.0000         8
  56.0500         7
  56.1000         4
  56.1500         8
  56.2000         5
  56.2500        11
  56.3000         4
  56.3500         5
  56.4000         7
  56.4500         7
  56.5000         6
  56.5500         8
  56.6000         7
  56.6500        11
  56.7000         2
  56.7500         5
  56.8000         4
  56.8500         4
  56.9000         4
  56.9500         1
  57.0000         1
  57.0500         5
  57.1000         4
  57.1500         5
  57.2000         8
  57.2500         7
  57.3000         5
  57.3500         7
  57.4000         4
  57.4500        10
  57.5000         4
  57.5500         6
  57.6000         2
  57.6500         6
  57.7000         4
  57.7500         3
  57.8000         4
  57.8500        10
  57.9000         3
  57.9500         6
  58.0000         3
  58.0500         3
  58.1000         4
  58.1500         8
  58.2000         3
  58.2500         3
  58.3000         3
  58.3500         6
  58.4000         8
  58.4500        10
  58.5000         8
  58.5500         3
  58.6000         7
  58.6500         3
  58.7000         5
  58.7500         7
  58.8000         2
  58.8500         8
  58.9000         8
  58.9500         5
  59.0000         4
  59.0500        10
  59.1000         9
  59.1500         6
  59.2000         4
  59.2500        11
  59.3000         6
  59.3500         5
  59.4000         6
  59.4500         9
  59.5000         6
  59.5500         9
  59.6000         5
  59.6500         5
  59.7000         2
  59.7500         7
  59.8000         9
  59.8500         7
  59.9000        12
  59.9500         4
  60.0000         7
  60.0500         7
  60.1000         4
  60.1500         7
  60.2000         4
  60.2500         6
  60.3000         3
  60.3500         2
  60.4000         5
  60.4500         8
  60.5000         9
  60.5500         9
  60.6000         7
  60.6500         8
  60.7000         4
  60.7500         4
  60.8000        11
  60.8500         6
  60.9000         4
  60.9500         4
  61.0000         2
  61.0500         3
  61.1000         9
  61.1500         7
  61.2000         7
  61.2500         9
  61.3000         3
  61.3500         7
  61.4000         6
  61.4500        12
  61.5000         5
  61.5500         4
  61.6000         7
  61.6500         3
  61.7000         5
  61.7500        10
  61.8000         9
  61.8500         5
  61.9000         7
  61.9500         6
  62.0000         8
  62.0500         3
  62.1000         4
  62.1500         5
  62.2000         4
  62.2500         4
  62.3000        12
  62.3500         7
  62.4000         5
  62.4500         8
  62.5000         4
  62.5500         5
  62.6000         4
  62.6500         9
  62.7000         5
  62.7500         7
  62.8000         7
  62.8500         5
  62.9000         8
  62.9500        10
  63.0000         7
  63.0500        10
  63.1000         6
  63.1500         4
  63.2000         5
  63.2500         4
  63.3000         6
  63.3500         8
  63.4000         2
  63.4500         3
  63.5000         4
  63.5500         6
  63.6000         5
  63.6500        13
  63.7000         5
  63.7500         4
  63.8000         3
  63.8500         7
  63.9000         3
  63.9500         6
  64.0000         5
  64.0500         5
  64.1000         2
  64.1500        10
  64.2000         5
  64.2500         7
  64.3000         7
  64.3500         7
  64.4000         7
  64.4500         6
  64.5000         9
  64.5500         8
  64.6000         4
  64.6500         3
  64.7000         7
  64.7500         3
  64.8000         2
  64.8500         6
  64.9000         4
  64.9500         4
  65.0000         2
  65.0500         9
  65.1000         9
  65.1500         7
  65.2000         3
  65.2500         9
  65.3000         4
  65.3500         4
  65.4000         3
  65.4500         5
  65.5000         5
  65.5500         4
  65.6000        10
  65.6500         2
  65.7000         4
  65.7500         2
  65.8000         8
  65.8500         1
  65.9000         7
  65.9500         8
  66.0000         4
  66.0500         5
  66.1000         6
  66.1500         3
  66.2000         8
  66.2500         5
  66.3000         4
  66.3500         3
  66.4000         1
  66.4500         5
  66.5000         5
  66.5500         6
  66.6000         7
  66.6500        10
  66.7000         5
  66.7500         6
  66.8000         6
  66.8500         4
  66.9000         6
  66.9500         5
  67.0000         7
  67.0500         6
  67.1000         6
  67.1500         3
  67.2000         5
  67.2500         3
  67.3000         8
  67.3500         7
  67.4000         3
  67.4500         2
  67.5000         6
  67.5500         6
  67.6000         7
  67.6500         4
  67.7000         8
  67.7500         6
  67.8000         6
  67.8500         3
  67.9000         6
  67.9500         2
  68.0000         7
  68.0500         6
  68.1000         8
  68.1500         5
  68.2000         6
  68.2500         4
  68.3000         5
  68.3500         4
  68.4000         5
  68.4500         4
  68.5000         6
  68.5500         7
  68.6000        12
  68.6500         5
  68.7000         4
  68.7500         7
  68.8000         6
  68.8500         2
  68.9000         6
  68.9500         5
  69.0000         9
  69.0500         7
  69.1000         5
  69.1500         5
  69.2000         3
  69.2500        14
  69.3000         6
  69.3500         2
  69.4000         5
  69.4500         7
  69.5000         8
  69.5500         5
  69.6000        14
  69.6500         7
  69.7000         7
  69.7500         5
  69.8000         5
  69.8500         3
  69.9000         4
  69.9500         1
  70.0000         7
  70.0500         5
  70.1000         7
  70.1500         9
  70.2000         9
  70.2500         9
  70.3000         6
  70.3500         6
  70.4000         9
  70.4500         4
  70.5000         6
  70.5500         9
  70.6000         2
  70.6500         3
  70.7000         3
  70.7500         8
  70.8000         8
  70.8500         2
  70.9000         5
  70.9500         6
  71.0000         5
  71.0500         4
  71.1000         5
  71.1500         5
  71.2000         6
  71.2500         6
  71.3000         8
  71.3500         6
  71.4000         5
  71.4500        11
  71.5000         7
  71.5500         7
  71.6000        11
  71.6500         4
  71.7000         5
  71.7500         7
  71.8000         4
  71.8500         8
  71.9000         5
  71.9500        12
  72.0000         5
  72.0500         5
  72.1000         4
  72.1500         9
  72.2000         6
  72.2500         7
  72.3000         6
  72.3500         8
  72.4000         8
  72.4500         2
  72.5000         6
  72.5500         9
  72.6000         6
  72.6500         4
  72.7000         6
  72.7500         2
  72.8000         4
  72.8500         8
  72.9000         6
  72.9500         7
  73.0000         7
  73.0500        10
  73.1000         9
  73.1500         8
  73.2000         7
  73.2500         5
  73.3000         8
  73.3500         6
  73.4000         5
  73.4500         6
  73.5000        12
  73.5500         7
  73.6000        11
  73.6500         7
  73.7000        12
  73.7500         5
  73.8000         9
  73.8500        26
  73.9000        13
  73.9500        15
  74.0000        13
  74.0500        12
  74.1000        11
  74.1500        14
  74.2000        18
  74.2500        21
  74.3000        30
  74.3500        22
  74.4000        27
  74.4500        42
  74.5000        30
  74.5500        44
  74.6000        71
  74.6500        83
  74.7000       104
  74.7500       110
  74.8000       140
  74.8500       118
  74.9000       131
  74.9500       140
  75.0000       128
  75.0500       110
  75.1000        76
  75.1500        74
  75.2000        60
  75.2500        55
  75.3000        42
  75.3500        34
  75.4000        28
  75.4500        22
  75.5000        18
  75.5500        22
  75.6000        19
  75.6500        15
  75.7000        13
  75.7500        20
  75.8000        17
  75.8500        11
  75.9000        13
  75.9500        12
  76.0000        13
  76.0500        10
  76.1000        11
  76.1500         6
  76.2000        13
  76.2500         8
  76.3000         7
  76.3500         3
  76.4000        12
  76.4500        12
  76.5000        10
  76.5500         9
  76.6000        12
  76.6500        11
  76.7000         7
  76.7500         7
  76.8000         3
  76.8500        10
  76.9000         5
  76.9500         5
  77.0000         7
  77.0500         4
  77.1000         5
  77.1500        16
  77.2000         9
  77.2500         7
  77.3000         6
  77.3500        16
  77.4000         8
  77.4500         8
  77.5000         8
  77.5500         3
  77.6000         4
  77.6500         5
  77.7000         9
  77.7500         8
  77.8000         7
  77.8500         4
  77.9000         7
  77.9500         8
  78.0000         6
  78.0500         4
  78.1000         5
  78.1500         5
  78.2000         5
  78.2500        10
  78.3000         5
  78.3500         5
  78.4000         4
  78.4500         8
  78.5000         9
  78.5500         3
  78.6000         4
  78.6500         7
  78.7000         6
  78.7500         5
  78.8000         8
  78.8500         5
  78.9000         3
  78.9500         0
  79.0000         3
  79.0500        10
  79.1000         6
  79.1500         6
  79.2000         7
  79.2500         8
  79.3000         4
  79.3500         5
  79.4000         3
  79.4500         6
  79.5000         7
  79.5500         5
  79.6000         5
  79.6500         7
  79.7000         9
  79.7500         5
  79.8000         8
  79.8500         5
  79.9000         5
  79.9500         7
  80.0000        10
  80.0500         8
  80.1000         3
  80.1500         4
  80.2000         8
  80.2500         7
  80.3000         5
  80.3500         4
  80.4000        12
  80.4500         7
  80.5000         6
  80.5500        10
  80.6000         4
  80.6500         3
  80.7000         8
  80.7500         4
  80.8000         4
  80.8500         6
  80.9000         6
  80.9500         6
  81.0000        10
  81.0500         7
  81.1000         1
  81.1500         5
  81.2000         9
  81.2500         8
  81.3000         5
  81.3500         6
  81.4000         2
  81.4500         3
  81.5000         7
  81.5500         6
  81.6000         7
  81.6500         6
  81.7000         7
  81.7500         8
  81.8000         4
  81.8500         6
  81.9000         7
  81.9500         7
  82.0000         7
  82.0500         2
  82.1000         8
  82.1500        12
  82.2000         3
  82.2500         2
  82.3000         2
  82.3500         7
  82.4000         5
  82.4500         4
  82.5000         8
  82.5500         2
  82.6000         4
  82.6500        14
  82.7000         3
  82.7500        10
  82.8000         1
  82.8500         2
  82.9000         6
  82.9500         6
  83.0000         7
  83.0500         6
  83.1000         3
  83.1500         5
  83.2000         7
  83.2500        10
  83.3000         3
  83.3500         4
  83.4000         2
  83.4500         7
  83.5000         6
  83.5500         6
  83.6000         4
  83.6500         8
  83.7000         3
  83.7500         7
  83.8000         5
  83.8500         8
  83.9000         6
  83.9500         3
  84.0000         9
  84.0500         5
  84.1000         7
  84.1500         5
  84.2000         5
  84.2500         8
  84.3000         7
  84.3500         8
  84.4000         3
  84.4500         3
  84.5000         4
  84.5500         6
  84.6000         4
  84.6500         3
  84.7000         5
  84.7500         2
  84.8000         7
  84.8500         7
  84.9000         3
  84.9500         8
  85.0000         3
  85.0500         7
  85.1000         5
  85.1500         5
  85.2000         7
  85.2500         1
  85.3000         6
  85.3500         6
  85.4000         7
  85.4500         6
  85.5000         5
  85.5500         7
  85.6000         5
  85.6500         3
  85.7000         8
  85.7500         5
  85.8000         4
  85.8500         3
  85.9000         9
  85.9500         5
  86.0000         2
  86.0500         4
  86.1000        11
  86.1500         9
  86.2000        13
  86.2500         4
  86.3000        11
  86.3500         8
  86.4000        10
  86.4500         4
  86.5000         2
  86.5500        12
  86.6000         4
  86.6500         6
  86.7000         3
  86.7500         8
  86.8000         7
  86.8500        10
  86.9000         6
  86.9500         7
  87.0000         6
  87.0500         9
  87.1000        10
  87.1500         6
  87.2000         3
  87.2500         6
  87.3000        12
  87.3500         3
  87.4000         6
  87.4500         5
  87.5000         5
  87.5500         5
  87.6000         9
  87.6500         9
  87.7000         2
  87.7500        10
  87.8000         6
  87.8500         5
  87.9000        10
  87.9500         7
  88.0000         8
  88.0500         4
  88.1000         4
  88.1500         4
  88.2000         4
  88.2500         4
  88.3000        10
  88.3500         5
  88.4000         6
  88.4500         4
  88.5000         9
  88.5500         7
  88.6000         6
  88.6500         8
  88.7000         6
  88.7500        10
  88.8000         5
  88.8500         7
  88.9000         8
  88.9500        11
  89.0000         7
  89.0500         7
  89.1000         6
  89.1500        10
  89.2000         9
  89.2500        10
  89.3000         5
  89.3500         7
  89.4000        10
  89.4500        11
  89.5000        10
  89.5500         9
  89.6000         7
  89.6500        13
  89.7000        12
  89.7500        12
  89.8000        14
  89.8500        13
  89.9000        10
  89.9500        15
  90.0000        22
  90.0500        21
  90.1000        18
  90.1500        22
  90.2000        22
  90.2500        27
  90.3000        30
  90.3500        50
  90.4000        54
  90.4500        42
  90.5000        52
  90.5500        63
  90.6000        72
  90.6500        74
  90.7000        85
  90.7500        88
  90.8000       112
  90.8500        96
  90.9000       102
  90.9500        91
  91.0000        93
  91.0500       116
  91.1000        84
  91.1500        81
  91.2000        75
  91.2500        80
  91.3000        59
  91.3500        44
  91.4000        46
  91.4500        46
  91.5000        24
  91.5500        36
  91.6000        36
  91.6500        24
  91.7000        27
  91.7500        21
  91.8000        20
  91.8500        19
  91.9000        18
  91.9500        16
  92.0000        10
  92.0500        13
  92.1000        15
  92.1500        16
  92.2000         6
  92.2500         9
  92.3000         7
  92.3500         7
  92.4000        10
  92.4500         8
  92.5000         9
  92.5500         4
  92.6000         9
  92.6500        12
  92.7000         5
  92.7500        11
  92.8000         9
  92.8500         5
  92.9000        11
  92.9500         8
  93.0000         6
  93.0500         4
  93.1000         4
  93.1500         3
  93.2000         5
  93.2500         9
  93.3000        10
  93.3500         8
  93.4000         8
  93.4500        13
  93.5000         6
  93.5500         9
  93.6000        14
  93.6500         3
  93.7000         6
  93.7500         3
  93.8000         7
  93.8500         6
  93.9000        10
  93.9500         7
  94.0000         4
  94.0500         6
  94.1000        11
  94.1500        15
  94.2000        10
  94.2500         7
  94.3000         9
  94.3500        15
  94.4000         7
  94.4500        10
  94.5000         8
  94.5500         4
  94.6000         3
  94.6500         7
  94.7000         7
  94.7500         9
  94.8000        10
  94.8500         2
  94.9000         6
  94.9500        10
  95.0000         5
  95.0500         7
  95.1000         8
  95.1500         9
  95.2000         7
  95.2500         7
  95.3000        10
  95.3500        11
  95.4000        11
  95.4500        12
  95.5000        13
  95.5500        14
  95.6000        11
  95.6500         9
  95.7000        18
  95.7500        14
  95.8000        24
  95.8500        26
  95.9000        19
  95.9500        31
  96.0000        34
  96.0500        39
  96.1000        44
  96.1500        30
  96.2000        45
  96.2500        34
  96.3000        39
  96.3500        30
  96.4000        25
  96.4500        35
  96.5000        34
  96.5500        37
  96.6000        15
  96.6500        22
  96.7000        16
  96.7500        18
  96.8000        18
  96.8500        18
  96.9000        13
  96.9500         7
  97.0000         7
  97.0500        14
  97.1000        11
  97.1500        13
  97.2000         9
  97.2500         6
  97.3000         9
  97.3500         6
  97.4000         9
  97.4500         8
  97.5000         6
  97.5500        10
  97.6000         7
  97.6500         8
  97.7000         8
  97.7500         3
  97.8000         2
  97.8500         6
  97.9000        11
  97.9500         4
  98.0000         4
  98.0500         8
  98.1000         8
  98.1500         1
  98.2000         9
  98.2500         5
  98.3000         9
  98.3500         6
  98.4000         5
  98.4500         1
  98.5000         5
  98.5500         9
  98.6000         8
  98.6500         7
  98.7000        10
  98.7500         5
  98.8000        11
  98.8500         4
  98.9000         9
  98.9500         7
  99.0000        11
  99.0500         3
  99.1000         7
  99.1500         3
  99.2000         4
  99.2500         6
  99.3000         6
  99.3500         7
  99.4000         6
  99.4500         7
  99.5000         3
  99.5500         6
  99.6000         4
  99.6500         5
  99.7000         6
  99.7500         8
  99.8000        11
  99.8500         4
  99.9000        11
  99.9500        10
 100.0000         6
 100.0500         9
 100.1000         6
 100.1500         4
 100.2000         3
 100.2500         7
 100.3000        11
 100.3500         4
 100.4000         4
 100.4500         9
 100.5000         5
 100.5500         3
 100.6000         2
 100.6500         2
 100.7000         5
 100.7500         6
 100.8000         3
 100.8500         9
 100.9000         8
 100.9500         6
 101.0000         9
 101.0500         9
 101.1000         6
 101.1500         1
 101.2000         3
 101.2500         5
 101.3000         8
 101.3500         9
 101.4000         9
 101.4500         9
 101.5000         8
 101.5500        12
 101.6000         4
 101.6500         4
 101.7000         6
 101.7500         7
 101.8000         9
 101.8500         5
 101.9000         3
 101.9500         7
 102.0000         7
 102.0500         5
 102.1000        11
 102.1500         6
 102.2000         9
 102.2500         8
 102.3000         8
 102.3500         5
 102.4000         4
 102.4500         4
 102.5000         3
 102.5500         7
 102.6000         3
 102.6500         6
 102.7000        10
 102.7500        11
 102.8000         4
 102.8500         5
 102.9000         5
 102.9500         5
 103.0000         8
 103.0500         6
 103.1000         5
 103.1500         4
 103.2000         6
 103.2500         5
 103.3000         8
 103.3500         6
 103.4000         7
 103.4500         9
 103.5000         4
 103.5500         4
 103.6000         8
 103.6500         2
 103.7000         7
 103.7500         7
 103.8000        10
 103.8500         6
 103.9000         8
 103.9500         5
 104.0000         9
 104.0500         9
 104.1000         4
 104.1500         8
 104.2000         7
 104.2500         7
 104.3000         8
 104.3500         9
 104.4000         3
 104.4500         4
 104.5000         6
 104.5500         4
 104.6000         6
 104.6500         6
 104.7000         9
 104.7500         8
 104.8000         8
 104.8500         8
 104.9000         5
 104.9500         8
 105.0000         7
 105.0500         3
 105.1000         5
 105.1500         3
 105.2000         3
 105.2500         5
 105.3000         9
 105.3500         6
 105.4000         6
 105.4500         7
 105.5000         3
 105.5500         5
 105.6000         5
 105.6500         4
 105.7000        10
 105.7500         4
 105.8000         5
 105.8500        10
 105.9000         8
 105.9500         8
 106.0000         0
 106.0500         4
 106.1000         7
 106.1500         5
 106.2000         4
 106.2500        10
 106.3000         7
 106.3500         5
 106.4000         8
 106.4500         6
 106.5000         7
 106.5500         7
 106.6000         5
 106.6500         5
 106.7000         5
 106.7500         7
 106.8000         7
 106.8500         8
 106.9000         9
 106.9500         4
 107.0000         4
 107.0500         8
 107.1000        11
 107.1500         4
 107.2000         5
 107.2500         6
 107.3000         6
 107.3500         5
 107.4000         7
 107.4500         5
 107.5000        10
 107.5500         5
 107.6000         6
 107.6500         5
 107.7000         3
 107.7500         4
 107.8000         6
 107.8500         5
 107.9000         4
 107.9500        10
 108.0000         5
 108.0500         7
 108.1000         6
 108.1500        11
 108.2000         4
 108.2500         5
 108.3000         4
 108.3500        10
 108.4000         7
 108.4500         9
 108.5000         4
 108.5500         7
 108.6000         6
 108.6500         7
 108.7000         7
 108.7500         6
 108.8000         9
 108.8500         5
 108.9000         6
 108.9500         6
 109.0000         8
 109.0500        14
 109.1000         7
 109.1500         8
 109.2000         5
 109.2500        10
 109.3000         8
 109.3500         3
 109.4000         7
 109.4500         3
 109.5000         4
 109.5500         5
 109.6000         4
 109.6500         9
 109.7000         6
 109.7500        12
 109.8000         6
 109.8500         7
 109.9000         4
 109.9500         6
 110.0000         6
