  10.0000        12
  10.0500        16
  10.1000        15
  10.1500        23
  10.2000        22
  10.2500        17
  10.3000        22
  10.3500        15
  10.4000        15
  10.4500         5
  10.5000        10
  10.5500        10
  10.6000         8
  10.6500         9
  10.7000         9
  10.7500         7
  10.8000         9
  10.8500         6
  10.9000         6
  10.9500         8
  11.0000         3
  11.0500         5
  11.1000         8
  11.1500         8
  11.2000         5
  11.2500         3
  11.3000         7
  11.3500        10
  11.4000         4
  11.4500         2
  11.5000        12
  11.5500         4
  11.6000         7
  11.6500         2
  11.7000         7
  11.7500         6
  11.8000         5
  11.8500         5
  11.9000         6
  11.9500        10
  12.0000         4
  12.0500         7
  12.1000         5
  12.1500         9
  12.2000         3
  12.2500         5
  12.3000         7
  12.3500         7
  12.4000         8
  12.4500        10
  12.5000         9
  12.5500         6
  12.6000         6
  12.6500         8
  12.7000         2
  12.7500         2
  12.8000         5
  12.8500         6
  12.9000         5
  12.9500         9
  13.0000         3
  13.0500         2
  13.1000        10
  13.1500         5
  13.2000         3
  13.2500         8
  13.3000         3
  13.3500         4
  13.4000         9
  13.4500         5
  13.5000         5
  13.5500         5
  13.6000         6
  13.6500         6
  13.7000         7
  13.7500        10
  13.8000         7
  13.8500         8
  13.9000         5
  13.9500         9
  14.0000         5
  14.0500        10
  14.1000         6
  14.1500        10
  14.2000         4
  14.2500        10
  14.3000        18
  14.3500        14
  14.4000        23
  14.4500        21
  14.5000        21
  14.5500         6
  14.6000        10
  14.6500         7
  14.7000         2
  14.7500         2
  14.8000         5
  14.8500         3
  14.9000         5
  14.9500         5
  15.0000         2
  15.0500         6
  15.1000         4
  15.1500         5
  15.2000         7
  15.2500         4
  15.3000         7
  15.3500         4
  15.4000         3
  15.4500         0
  15.5000         7
  15.5500         7
  15.6000         7
  15.6500         4
  15.7000         6
  15.7500         5
  15.8000         9
  15.8500         3
  15.9000         6
  15.9500         5
  16.0000         6
  16.0500         4
  16.1000         3
  16.1500         8
  16.2000         8
  16.2500         3
  16.3000         8
  16.3500         4
  16.4000         5
  16.4500         6
  16.5000         1
  16.5500         3
  16.6000         1
  16.6500         5
  16.7000         6
  16.7500         2
  16.8000         1
  16.8500         3
  16.9000         3
  16.9500         4
  17.0000         2
  17.0500         6
  17.1000         4
  17.1500         4
  17.2000         6
  17.2500         2
  17.3000         4
  17.3500        11
  17.4000         1
  17.4500         6
  17.5000         5
  17.5500         6
  17.6000         4
  17.6500         4
  17.7000         4
  17.7500         5
  17.8000         1
  17.8500         1
  17.9000         5
  17.9500         6
  18.0000         6
  18.0500         5
  18.1000         3
  18.1500         1
  18.2000         6
  18.2500         3
  18.3000         6
  18.3500         7
  18.4000         3
  18.4500         2
  18.5000         4
  18.5500         6
  18.6000         4
  18.6500         2
  18.7000         0
  18.7500         3
  18.8000         4
  18.8500         5
  18.9000         5
  18.9500         4
  19.0000         5
  19.0500         2
  19.1000         1
  19.1500         7
  19.2000         3
  19.2500         6
  19.3000         4
  19.3500         9
  19.4000         3
  19.4500         4
  19.5000         3
  19.5500         2
  19.6000         8
  19.6500         6
  19.7000         8
  19.7500         9
  19.8000         6
  19.8500         9
  19.9000         9
  19.9500         7
  20.0000        13
  20.0500         2
  20.1000         6
  20.1500         5
  20.2000         4
  20.2500         6
  20.3000         4
  20.3500         6
  20.4000         4
  20.4500         9
  20.5000         5
  20.5500         9
  20.6000         3
  20.6500         4
  20.7000         3
  20.7500         8
  20.8000         4
  20.8500         5
  20.9000         7
  20.9500         8
  21.0000         8
  21.0500         6
  21.1000         8
  21.1500         9
  21.2000         4
  21.2500         1
  21.3000         3
  21.3500        10
  21.4000         8
  21.4500         5
  21.5000         2
  21.5500         4
  21.6000        10
  21.6500         5
  21.7000        11
  21.7500         4
  21.8000         5
  21.8500         9
  21.9000         5
  21.9500         6
  22.0000         7
  22.0500         5
  22.1000         4
  22.1500         8
  22.2000         5
  22.2500         6
  22.3000         7
  22.3500         7
  22.4000         2
  22.4500         6
  22.5000        11
  22.5500         2
  22.6000         3
  22.6500         3
  22.7000         1
  22.7500         7
  22.8000        10
  22.8500        10
  22.9000         6
  22.9500         6
  23.0000        12
  23.0500        14
  23.1000         5
  23.1500         6
  23.2000        18
  23.2500        14
  23.3000         7
  23.3500         6
  23.4000         4
  23.4500         7
  23.5000        10
  23.5500         8
  23.6000        13
  23.6500         7
  23.7000         4
  23.7500         9
  23.8000         8
  23.8500         5
  23.9000         7
  23.9500         4
  24.0000         5
  24.0500        12
  24.1000        11
  24.1500         7
  24.2000         6
  24.2500         6
  24.3000         6
  24.3500         9
  24.4000         4
  24.4500         7
  24.5000         9
  24.5500         3
  24.6000         9
  24.6500         3
  24.7000        14
  24.7500         5
  24.8000        17
  24.8500        18
  24.9000        12
  24.9500        12
  25.0000         6
  25.0500        11
  25.1000         7
  25.1500        14
  25.2000         6
  25.2500         9
  25.3000        11
  25.3500         7
  25.4000         7
  25.4500        10
  25.5000         4
  25.5500         5
  25.6000         7
  25.6500         6
  25.7000         9
  25.7500        11
  25.8000         7
  25.8500        10
  25.9000         6
  25.9500         6
  26.0000         3
  26.0500         6
  26.1000         2
  26.1500         4
  26.2000         5
  26.2500        12
  26.3000         8
  26.3500         7
  26.4000         5
  26.4500         8
  26.5000         4
  26.5500         9
  26.6000         5
  26.6500         6
  26.7000        13
  26.7500        12
  26.8000         9
  26.8500         8
  26.9000        14
  26.9500        14
  27.0000         7
  27.0500        10
  27.1000         5
  27.1500        18
  27.2000        15
  27.2500        12
  27.3000        13
  27.3500         7
  27.4000        12
  27.4500        15
  27.5000        10
  27.5500        13
  27.6000        12
  27.6500        10
  27.7000         8
  27.7500        13
  27.8000        12
  27.8500        12
  27.9000        13
  27.9500        16
  28.0000        16
  28.0500        11
  28.1000         9
  28.1500         9
  28.2000        21
  28.2500        24
  28.3000        19
  28.3500        20
  28.4000        18
  28.4500        27
  28.5000        21
  28.5500        27
  28.6000        18
  28.6500        19
  28.7000        11
  28.7500        11
  28.8000         9
  28.8500         8
  28.9000        14
  28.9500         6
  29.0000         8
  29.0500         6
  29.1000        14
  29.1500        11
  29.2000        10
  29.2500         9
  29.3000         9
  29.3500         9
  29.4000         7
  29.4500        11
  29.5000         6
  29.5500        14
  29.6000         6
  29.6500         7
  29.7000        11
  29.7500        10
  29.8000        10
  29.8500        15
  29.9000         9
  29.9500         8
  30.0000         4
  30.0500        13
  30.1000        10
  30.1500        10
  30.2000        10
  30.2500        15
  30.3000        12
  30.3500         9
  30.4000        17
  30.4500        14
  30.5000        34
  30.5500        26
  30.6000        22
  30.6500        23
  30.7000        21
  30.7500        25
  30.8000        19
  30.8500        26
  30.9000        22
  30.9500        31
  31.0000        26
  31.0500        30
  31.1000        47
  31.1500        59
  31.2000       111
  31.2500       222
  31.3000       452
  31.3500       999
  31.4000      1106
  31.4500       913
  31.5000       446
  31.5500       190
  31.6000        71
  31.6500        36
  31.7000        27
  31.7500        18
  31.8000        24
  31.8500        22
  31.9000        17
  31.9500        18
  32.0000        24
  32.0500        18
  32.1000        19
  32.1500        18
  32.2000        17
  32.2500        22
  32.3000        12
  32.3500         7
  32.4000        16
  32.4500        12
  32.5000        16
  32.5500        18
  32.6000        10
  32.6500        10
  32.7000        15
  32.7500        12
  32.8000         8
  32.8500        15
  32.9000         9
  32.9500         7
  33.0000         5
  33.0500         7
  33.1000         9
  33.1500        13
  33.2000        12
  33.2500         9
  33.3000        13
  33.3500         3
  33.4000        10
  33.4500         9
  33.5000        11
  33.5500        12
  33.6000         9
  33.6500         9
  33.7000         5
  33.7500         9
  33.8000         7
  33.8500         7
  33.9000         8
  33.9500        10
  34.0000         8
  34.0500        17
  34.1000        13
  34.1500        12
  34.2000        11
  34.2500        10
  34.3000        14
  34.3500        15
  34.4000         8
  34.4500         9
  34.5000         6
  34.5500        13
  34.6000         9
  34.6500        14
  34.7000         6
  34.7500         7
  34.8000        10
  34.8500        14
  34.9000         9
  34.9500        10
  35.0000         6
  35.0500         7
  35.1000         8
  35.1500        12
  35.2000         8
  35.2500        13
  35.3000         9
  35.3500        12
  35.4000        13
  35.4500         8
  35.5000        11
  35.5500        12
  35.6000         6
  35.6500        14
  35.7000         7
  35.7500        11
  35.8000         5
  35.8500        11
  35.9000        19
  35.9500        13
  36.0000        14
  36.0500        16
  36.1000        20
  36.1500        44
  36.2000        82
  36.2500       132
  36.3000       285
  36.3500       508
  36.4000       532
  36.4500       469
  36.5000       248
  36.5500       120
  36.6000        55
  36.6500        29
  36.7000        19
  36.7500        15
  36.8000        17
  36.8500         8
  36.9000         8
  36.9500         8
  37.0000         4
  37.0500        15
  37.1000        10
  37.1500         3
  37.2000         6
  37.2500        14
  37.3000         6
  37.3500         9
  37.4000        11
  37.4500         5
  37.5000         4
  37.5500        10
  37.6000         2
  37.6500         5
  37.7000         5
  37.7500         7
  37.8000         3
  37.8500        12
  37.9000         8
  37.9500         5
  38.0000         8
  38.0500         7
  38.1000         5
  38.1500         2
  38.2000        11
  38.2500         1
  38.3000         4
  38.3500         3
  38.4000         4
  38.4500        11
  38.5000         4
  38.5500         4
  38.6000         4
  38.6500        11
  38.7000         7
  38.7500         3
  38.8000         4
  38.8500         2
  38.9000         5
  38.9500         6
  39.0000         4
  39.0500        10
  39.1000         7
  39.1500         2
  39.2000         6
  39.2500        12
  39.3000         5
  39.3500        10
  39.4000         5
  39.4500         5
  39.5000         5
  39.5500         4
  39.6000         6
  39.6500         7
  39.7000         6
  39.7500         3
  39.8000         5
  39.8500         5
  39.9000         7
  39.9500         3
  40.0000         3
  40.0500         8
  40.1000         2
  40.1500         3
  40.2000         4
  40.2500         1
  40.3000         3
  40.3500         6
  40.4000         7
  40.4500         5
  40.5000         5
  40.5500         5
  40.6000         9
  40.6500         6
  40.7000         9
  40.7500         5
  40.8000         1
  40.8500         2
  40.9000         6
  40.9500         3
  41.0000         7
  41.0500         5
  41.1000         9
  41.1500         3
  41.2000         6
  41.2500         5
  41.3000         4
  41.3500         7
  41.4000         4
  41.4500         1
  41.5000         1
  41.5500         6
  41.6000         6
  41.6500         8
  41.7000         9
  41.7500         5
  41.8000         2
  41.8500         7
  41.9000        10
  41.9500         2
  42.0000         9
  42.0500         5
  42.1000         8
  42.1500         3
  42.2000         3
  42.2500         5
  42.3000         9
  42.3500         4
  42.4000         6
  42.4500        10
  42.5000         9
  42.5500         4
  42.6000         7
  42.6500         8
  42.7000         3
  42.7500        10
  42.8000         4
  42.8500        12
  42.9000         5
  42.9500         5
  43.0000         8
  43.0500         6
  43.1000         7
  43.1500         4
  43.2000         5
  43.2500         5
  43.3000         5
  43.3500         6
  43.4000         4
  43.4500         1
  43.5000         7
  43.5500         4
  43.6000         4
  43.6500         7
  43.7000         2
  43.7500         5
  43.8000         7
  43.8500         0
  43.9000         1
  43.9500         3
  44.0000         3
  44.0500         6
  44.1000         8
  44.1500         9
  44.2000         6
  44.2500         6
  44.3000         5
  44.3500         4
  44.4000        10
  44.4500         6
  44.5000         7
  44.5500         8
  44.6000         7
  44.6500         5
  44.7000         8
  44.7500         5
  44.8000         4
  44.8500         6
  44.9000         4
  44.9500         9
  45.0000         5
  45.0500         2
  45.1000         8
  45.1500         2
  45.2000         3
  45.2500         7
  45.3000         8
  45.3500         6
  45.4000         4
  45.4500         3
  45.5000         3
  45.5500         7
  45.6000         2
  45.6500         3
  45.7000         7
  45.7500         4
  45.8000         3
  45.8500         1
  45.9000         3
  45.9500         2
  46.0000         2
  46.0500         6
  46.1000        10
  46.1500         6
  46.2000         4
  46.2500         3
  46.3000         4
  46.3500         4
  46.4000         5
  46.4500         6
  46.5000         3
  46.5500         6
  46.6000        10
  46.6500         8
  46.7000         6
  46.7500         5
  46.8000         8
  46.8500         8
  46.9000         4
  46.9500         5
  47.0000         5
  47.0500         4
  47.1000         4
  47.1500         1
  47.2000         2
  47.2500         5
  47.3000         7
  47.3500         9
  47.4000         2
  47.4500         4
  47.5000         6
  47.5500         5
  47.6000         7
  47.6500         1
  47.7000         8
  47.7500         5
  47.8000         6
  47.8500         9
  47.9000         5
  47.9500         4
  48.0000         3
  48.0500         8
  48.1000         7
  48.1500        10
  48.2000        11
  48.2500         3
  48.3000         4
  48.3500         5
  48.4000         9
  48.4500         6
  48.5000        10
  48.5500         6
  48.6000         5
  48.6500         1
  48.7000         5
  48.7500         1
  48.8000         5
  48.8500         7
  48.9000         5
  48.9500         7
  49.0000         6
  49.0500         2
  49.1000         1
  49.1500         7
  49.2000         6
  49.2500         7
  49.3000         9
  49.3500         9
  49.4000         6
  49.4500         9
  49.5000         2
  49.5500         3
  49.6000         9
  49.6500         6
  49.7000         3
  49.7500         7
  49.8000         2
  49.8500         4
  49.9000         7
  49.9500         3
  50.0000         6
  50.0500         3
  50.1000         1
  50.1500         6
  50.2000         7
  50.2500         5
  50.3000         4
  50.3500         3
  50.4000         2
  50.4500         0
  50.5000        12
  50.5500         8
  50.6000         5
  50.6500         5
  50.7000         5
  50.7500        11
  50.8000         6
  50.8500         4
  50.9000         8
  50.9500         4
  51.0000         5
  51.0500         8
  51.1000         5
  51.1500         7
  51.2000        10
  51.2500         3
  51.3000         9
  51.3500         8
  51.4000        10
  51.4500         8
  51.5000        10
  51.5500         7
  51.6000         8
  51.6500         6
  51.7000         6
  51.7500         8
  51.8000         7
  51.8500         9
  51.9000         8
  51.9500         6
  52.0000        13
  52.0500        17
  52.1000        15
  52.1500        27
  52.2000        61
  52.2500       111
  52.3000       195
  52.3500       220
  52.4000       172
  52.4500       136
  52.5000       102
  52.5500        51
  52.6000        36
  52.6500        14
  52.7000         9
  52.7500         8
  52.8000         8
  52.8500         7
  52.9000         9
  52.9500         4
  53.0000         8
  53.0500         3
  53.1000         6
  53.1500         8
  53.2000         3
  53.2500         1
  53.3000         5
  53.3500         8
  53.4000         3
  53.4500         1
  53.5000         7
  53.5500         7
  53.6000         4
  53.6500         7
  53.7000         6
  53.7500         5
  53.8000         7
  53.8500         4
  53.9000         8
  53.9500         2
  54.0000         4
  54.0500         8
  54.1000         8
  54.1500        11
  54.2000         4
  54.2500         4
  54.3000        11
  54.3500         6
  54.4000         4
  54.4500        14
  54.5000         6
  54.5500         4
  54.6000        12
  54.6500         5
  54.7000         7
  54.7500         4
  54.8000         5
  54.8500         5
  54.9000         7
  54.9500         9
  55.0000         7
  55.0500         3
  55.1000         7
  55.1500        12
  55.2000         8
  55.2500         6
  55.3000         7
  55.3500         6
  55.4000        10
  55.4500         4
  55.5000         5
  55.5500        11
  55.6000         5
  55.6500         6
  55.7000        11
  55.7500         7
  55.8000         7
  55.8500        11
  55.9000         3
  55.9500         9
  56.0000         6
  56.0500         3
  56.1000        11
  56.1500         8
  56.2000         4
  56.2500         9
  56.3000         8
  56.3500         8
  56.4000         7
  56.4500         5
  56.5000         4
  56.5500         7
  56.6000         4
  56.6500         5
  56.7000         4
  56.7500         7
  56.8000         6
  56.8500         4
  56.9000         6
  56.9500         3
  57.0000         6
  57.0500         7
  57.1000         4
  57.1500         5
  57.2000         7
  57.2500         5
  57.3000         3
  57.3500         4
  57.4000         8
  57.4500         8
  57.5000         8
  57.5500         5
  57.6000        12
  57.6500         4
  57.7000         8
  57.7500         3
  57.8000         9
  57.8500         9
  57.9000         4
  57.9500         4
  58.0000         7
  58.0500        11
  58.1000         8
  58.1500         9
  58.2000        10
  58.2500         8
  58.3000        12
  58.3500         3
  58.4000         5
  58.4500         9
  58.5000         4
  58.5500         7
  58.6000         4
  58.6500        10
  58.7000         6
  58.7500         6
  58.8000        13
  58.8500         5
  58.9000         9
  58.9500         3
  59.0000         3
  59.0500         8
  59.1000        10
  59.1500        10
  59.2000        11
  59.2500         6
  59.3000         4
  59.3500         8
  59.4000         6
  59.4500         7
  59.5000         8
  59.5500         4
  59.6000        12
  59.6500         9
  59.7000         8
  59.7500         9
  59.8000         4
  59.8500         7
  59.9000         9
  59.9500         7
  60.0000         6
  60.0500         5
  60.1000         8
  60.1500         7
  60.2000         7
  60.2500        11
  60.3000         2
  60.3500        10
  60.4000         4
  60.4500        13
  60.5000        11
  60.5500        13
  60.6000        10
  60.6500         4
  60.7000        10
  60.7500         7
  60.8000         8
  60.8500         5
  60.9000         4
  60.9500         8
  61.0000         9
  61.0500         7
  61.1000        10
  61.1500         6
  61.2000         6
  61.2500        12
  61.3000         8
  61.3500         7
  61.4000         8
  61.4500         5
  61.5000        10
  61.5500        10
  61.6000        14
  61.6500        13
  61.7000        13
  61.7500        14
  61.8000        17
  61.8500         9
  61.9000        19
  61.9500        16
  62.0000        27
  62.0500        23
  62.1000        44
  62.1500       133
  62.2000       229
  62.2500       402
  62.3000       472
  62.3500       224
  62.4000       202
  62.4500       250
  62.5000       133
  62.5500        48
  62.6000        27
  62.6500        22
  62.7000         9
  62.7500        11
  62.8000        10
  62.8500        10
  62.9000        14
  62.9500        15
  63.0000        10
  63.0500         5
  63.1000         6
  63.1500        10
  63.2000         5
  63.2500         7
  63.3000         7
  63.3500        10
  63.4000         3
  63.4500         8
  63.5000         9
  63.5500         6
  63.6000         8
  63.6500         6
  63.7000         8
  63.7500         8
  63.8000         9
  63.8500         8
  63.9000         6
  63.9500         9
  64.0000         5
  64.0500         9
  64.1000         8
  64.1500         9
  64.2000         7
  64.2500         3
  64.3000         5
  64.3500         3
  64.4000         9
  64.4500        10
  64.5000         9
  64.5500         8
  64.6000        10
  64.6500         7
  64.7000         6
  64.7500         9
  64.8000         7
  64.8500         8
  64.9000         6
  64.9500         5
  65.0000         9
  65.0500         2
  65.1000         7
  65.1500        10
  65.2000        15
  65.2500        48
  65.3000        64
  65.3500        83
  65.4000        57
  65.4500        43
  65.5000        53
  65.5500        46
  65.6000        32
  65.6500        14
  65.7000        10
  65.7500         8
  65.8000         9
  65.8500         8
  65.9000         3
  65.9500         5
  66.0000         8
  66.0500        10
  66.1000         4
  66.1500         3
  66.2000        11
  66.2500         6
  66.3000         9
  66.3500         3
  66.4000        10
  66.4500         8
  66.5000         8
  66.5500         5
  66.6000         8
  66.6500         3
  66.7000        11
  66.7500         1
  66.8000         3
  66.8500         8
  66.9000         5
  66.9500         4
  67.0000         6
  67.0500         5
  67.1000         6
  67.1500         7
  67.2000         4
  67.2500         7
  67.3000         6
  67.3500         8
  67.4000         4
  67.4500        11
  67.5000         4
  67.5500         3
  67.6000         3
  67.6500         3
  67.7000         8
  67.7500         7
  67.8000         4
  67.8500        11
  67.9000         2
  67.9500         8
  68.0000         5
  68.0500         4
  68.1000         8
  68.1500         2
  68.2000         5
  68.2500         2
  68.3000         6
  68.3500         7
  68.4000         4
  68.4500         6
  68.5000         6
  68.5500         5
  68.6000         6
  68.6500         3
  68.7000         4
  68.7500         6
  68.8000         5
  68.8500         4
  68.9000         3
  68.9500         2
  69.0000         4
  69.0500         7
  69.1000         3
  69.1500         3
  69.2000         5
  69.2500         5
  69.3000         4
  69.3500         2
  69.4000         3
  69.4500         6
  69.5000         3
  69.5500         6
  69.6000         6
  69.6500         4
  69.7000         5
  69.7500         8
  69.8000         7
  69.8500         5
  69.9000         5
  69.9500         5
  70.0000         9
  70.0500         4
  70.1000         3
  70.1500         3
  70.2000         5
  70.2500         6
  70.3000         1
  70.3500         7
  70.4000         6
  70.4500         3
  70.5000         6
  70.5500         4
  70.6000         5
  70.6500         4
  70.7000         4
  70.7500         5
  70.8000         5
  70.8500         9
  70.9000         5
  70.9500         4
  71.0000         4
  71.0500         3
  71.1000         2
  71.1500         5
  71.2000         2
  71.2500         8
  71.3000         5
  71.3500         4
  71.4000         4
  71.4500         3
  71.5000         1
  71.5500         3
  71.6000         7
  71.6500         5
  71.7000         6
  71.7500         4
  71.8000         5
  71.8500         6
  71.9000         4
  71.9500         3
  72.0000         4
  72.0500         5
  72.1000         5
  72.1500         6
  72.2000         7
  72.2500         4
  72.3000         0
  72.3500         6
  72.4000         6
  72.4500         4
  72.5000         3
  72.5500         4
  72.6000         8
  72.6500         3
  72.7000         2
  72.7500         5
  72.8000         3
  72.8500         8
  72.9000         3
  72.9500         5
  73.0000         1
  73.0500         5
  73.1000         4
  73.1500         3
  73.2000         2
  73.2500         5
  73.3000         6
  73.3500         3
  73.4000         4
  73.4500         4
  73.5000         5
  73.5500         4
  73.6000         5
  73.6500         5
  73.7000         8
  73.7500         4
  73.8000         2
  73.8500         1
  73.9000         5
  73.9500         4
  74.0000         6
  74.0500         6
  74.1000         8
  74.1500         2
  74.2000         4
  74.2500         3
  74.3000         6
  74.3500         6
  74.4000         8
  74.4500         3
  74.5000         5
  74.5500         5
  74.6000         2
  74.6500        10
  74.7000         1
  74.7500         3
  74.8000         4
  74.8500         0
  74.9000         3
  74.9500         1
  75.0000        10
  75.0500         2
  75.1000         3
  75.1500         2
  75.2000         4
  75.2500         0
  75.3000         6
  75.3500         2
  75.4000         7
  75.4500         7
  75.5000         2
  75.5500         1
  75.6000         5
  75.6500         7
  75.7000         4
  75.7500         6
  75.8000         6
  75.8500         3
  75.9000         4
  75.9500         2
  76.0000         2
  76.0500         4
  76.1000         3
  76.1500         5
  76.2000         4
  76.2500         5
  76.3000         4
  76.3500         3
  76.4000         5
  76.4500         5
  76.5000        12
  76.5500         5
  76.6000         4
  76.6500         8
  76.7000         9
  76.7500        11
  76.8000        11
  76.8500        12
  76.9000        12
  76.9500         8
  77.0000        26
  77.0500        34
  77.1000        29
  77.1500        24
  77.2000        18
  77.2500        22
  77.3000        12
  77.3500        16
  77.4000         8
  77.4500         9
  77.5000         7
  77.5500         5
  77.6000         5
  77.6500         8
  77.7000         8
  77.7500         7
  77.8000         5
  77.8500         7
  77.9000         4
  77.9500         5
  78.0000         2
  78.0500         1
  78.1000         4
  78.1500         2
  78.2000         5
  78.2500         3
  78.3000         6
  78.3500         6
  78.4000         2
  78.4500         6
  78.5000         2
  78.5500         3
  78.6000         4
  78.6500         2
  78.7000         4
  78.7500         1
  78.8000         3
  78.8500         2
  78.9000         2
  78.9500         6
  79.0000         5
  79.0500         3
  79.1000         7
  79.1500         5
  79.2000         4
  79.2500         4
  79.3000         2
  79.3500         3
  79.4000         4
  79.4500         4
  79.5000         4
  79.5500         3
  79.6000         7
  79.6500         2
  79.7000         5
  79.7500         5
  79.8000         7
  79.8500         8
  79.9000         6
  79.9500         6
  80.0000         6
  80.0500         4
  80.1000         3
  80.1500         8
  80.2000         5
  80.2500         7
  80.3000         7
  80.3500         4
  80.4000         3
  80.4500         2
  80.5000         5
  80.5500         8
  80.6000         5
  80.6500         3
  80.7000         4
  80.7500         2
  80.8000         7
  80.8500         5
  80.9000         2
  80.9500         6
  81.0000         3
  81.0500         3
  81.1000         6
  81.1500         4
  81.2000         5
  81.2500         9
  81.3000         1
  81.3500         5
  81.4000         5
  81.4500         5
  81.5000         3
  81.5500         5
  81.6000         6
  81.6500         5
  81.7000         3
  81.7500         5
  81.8000         1
  81.8500         8
  81.9000         8
  81.9500         1
  82.0000         7
  82.0500         4
  82.1000         3
  82.1500         5
  82.2000         7
  82.2500         6
  82.3000         5
  82.3500         4
  82.4000         7
  82.4500         4
  82.5000         4
  82.5500         3
  82.6000         5
  82.6500         2
  82.7000         2
  82.7500         9
  82.8000         1
  82.8500         6
  82.9000         5
  82.9500         5
  83.0000         6
  83.0500         6
  83.1000         5
  83.1500         4
  83.2000         2
  83.2500         5
  83.3000         2
  83.3500         5
  83.4000         0
  83.4500         1
  83.5000         4
  83.5500         5
  83.6000         4
  83.6500         4
  83.7000         5
  83.7500         3
  83.8000         7
  83.8500         1
  83.9000         5
  83.9500        12
  84.0000         8
  84.0500         4
  84.1000         7
  84.1500         3
  84.2000         4
  84.2500         8
  84.3000         8
  84.3500         4
  84.4000        10
  84.4500         4
  84.5000         6
  84.5500         4
  84.6000        10
  84.6500         7
  84.7000         3
  84.7500         4
  84.8000         6
  84.8500         7
  84.9000         4
  84.9500         3
  85.0000         6
  85.0500        10
  85.1000         8
  85.1500         5
  85.2000         6
  85.2500         7
  85.3000         8
  85.3500         7
  85.4000        24
  85.4500        50
  85.5000        64
  85.5500        62
  85.6000        66
  85.6500        21
  85.7000        29
  85.7500        37
  85.8000        43
  85.8500        21
  85.9000        15
  85.9500        11
  86.0000        10
  86.0500         6
  86.1000        12
  86.1500        13
  86.2000         5
  86.2500         9
  86.3000         9
  86.3500         7
  86.4000         8
  86.4500         5
  86.5000         8
  86.5500         3
  86.6000         3
  86.6500         5
  86.7000         6
  86.7500         6
  86.8000         2
  86.8500         8
  86.9000         4
  86.9500         4
  87.0000         2
  87.0500         6
  87.1000         6
  87.1500         7
  87.2000         6
  87.2500         3
  87.3000         6
  87.3500         6
  87.4000         6
  87.4500         4
  87.5000         5
  87.5500         3
  87.6000         9
  87.6500         8
  87.7000         5
  87.7500         3
  87.8000        11
  87.8500         8
  87.9000         4
  87.9500         7
  88.0000         8
  88.0500         6
  88.1000        15
  88.1500        20
  88.2000        26
  88.2500        51
  88.3000        75
  88.3500        70
  88.4000        40
  88.4500        35
  88.5000        22
  88.5500        40
  88.6000        51
  88.6500        34
  88.7000        28
  88.7500        14
  88.8000        12
  88.8500         5
  88.9000         8
  88.9500         5
  89.0000         4
  89.0500         7
  89.1000         3
  89.1500         9
  89.2000         4
  89.2500         8
  89.3000         5
  89.3500         6
  89.4000         5
  89.4500         9
  89.5000         9
  89.5500         4
  89.6000         5
  89.6500         6
  89.7000         4
  89.7500         7
  89.8000         3
  89.8500         5
  89.9000         5
  89.9500         4
  90.0000         7
  90.0500         8
  90.1000         4
  90.1500         5
  90.2000         5
  90.2500         4
  90.3000         7
  90.3500         3
  90.4000         4
  90.4500         3
  90.5000         5
  90.5500         6
  90.6000         6
  90.6500         7
  90.7000         4
  90.7500        11
  90.8000         6
  90.8500         3
  90.9000         6
  90.9500         4
  91.0000         3
  91.0500         6
  91.1000        11
  91.1500         8
  91.2000         2
  91.2500         9
  91.3000         5
  91.3500         4
  91.4000         6
  91.4500         5
  91.5000         9
  91.5500         6
  91.6000         4
  91.6500         2
  91.7000        11
  91.7500         6
  91.8000         3
  91.8500         3
  91.9000         7
  91.9500         4
  92.0000         2
  92.0500         4
  92.1000         2
  92.1500         8
  92.2000         6
  92.2500         5
  92.3000         9
  92.3500         7
  92.4000         6
  92.4500         6
  92.5000         4
  92.5500         4
  92.6000         6
  92.6500         6
  92.7000         2
  92.7500         7
  92.8000         7
  92.8500         6
  92.9000         4
  92.9500         6
  93.0000         5
  93.0500         7
  93.1000         7
  93.1500         3
  93.2000         4
  93.2500         2
  93.3000         4
  93.3500         6
  93.4000         3
  93.4500         5
  93.5000         3
  93.5500         3
  93.6000         5
  93.6500         7
  93.7000         2
  93.7500         4
  93.8000         4
  93.8500         4
  93.9000         3
  93.9500         2
  94.0000         4
  94.0500         5
  94.1000         3
  94.1500         9
  94.2000         4
  94.2500         8
  94.3000         7
  94.3500         4
  94.4000         4
  94.4500         5
  94.5000         3
  94.5500         5
  94.6000         5
  94.6500         6
  94.7000         3
  94.7500         5
  94.8000         1
  94.8500         3
  94.9000         4
  94.9500         6
  95.0000         5
  95.0500         1
  95.1000         6
  95.1500         5
  95.2000         9
  95.2500         9
  95.3000         9
  95.3500         3
  95.4000         1
  95.4500         4
  95.5000         3
  95.5500         4
  95.6000         3
  95.6500         7
  95.7000         7
  95.7500         4
  95.8000         6
  95.8500         7
  95.9000         3
  95.9500         5
  96.0000         6
  96.0500         5
  96.1000         2
  96.1500         4
  96.2000         5
  96.2500         2
  96.3000         4
  96.3500         1
  96.4000         6
  96.4500         3
  96.5000         5
  96.5500         6
  96.6000         7
  96.6500         4
  96.7000         5
  96.7500         6
  96.8000         7
  96.8500         1
  96.9000         2
  96.9500         5
  97.0000         1
  97.0500         5
  97.1000         5
  97.1500         4
  97.2000         6
  97.2500         3
  97.3000         4
  97.3500         5
  97.4000         7
  97.4500         5
  97.5000         2
  97.5500         4
  97.6000         1
  97.6500         4
  97.7000         6
  97.7500         5
  97.8000        12
  97.8500         2
  97.9000         4
  97.9500         4
  98.0000         6
  98.0500         7
  98.1000         6
  98.1500         7
  98.2000         7
  98.2500         3
  98.3000         9
  98.3500         5
  98.4000         8
  98.4500         7
  98.5000         7
  98.5500         6
  98.6000         7
  98.6500        12
  98.7000         6
  98.7500         9
  98.8000         4
  98.8500         2
  98.9000         7
  98.9500         8
  99.0000         7
  99.0500         5
  99.1000         5
  99.1500        10
  99.2000        10
  99.2500        13
  99.3000        18
  99.3500        24
  99.4000        38
  99.4500        41
  99.5000        31
  99.5500        16
  99.6000        14
  99.6500        20
  99.7000        20
  99.7500        30
  99.8000        25
  99.8500        17
  99.9000        11
  99.9500        12
 100.0000        10
 100.0500         8
 100.1000         7
 100.1500         4
 100.2000        13
 100.2500         6
 100.3000         5
 100.3500         5
 100.4000        10
 100.4500         6
 100.5000         5
 100.5500         3
 100.6000         3
 100.6500         4
 100.7000         8
 100.7500         4
 100.8000         3
 100.8500         8
 100.9000         5
 100.9500         6
 101.0000         2
 101.0500         6
 101.1000         3
 101.1500         4
 101.2000         4
 101.2500         1
 101.3000         4
 101.3500         5
 101.4000         6
 101.4500         9
 101.5000         4
 101.5500         9
 101.6000         3
 101.6500        10
 101.7000         7
 101.7500         6
 101.8000         6
 101.8500         3
 101.9000         6
 101.9500         8
 102.0000         4
 102.0500         9
 102.1000         5
 102.1500         5
 102.2000         7
 102.2500         8
 102.3000         2
 102.3500         4
 102.4000         4
 102.4500         3
 102.5000         9
 102.5500         8
 102.6000         6
 102.6500         7
 102.7000         6
 102.7500         3
 102.8000         5
 102.8500         1
 102.9000         5
 102.9500         7
 103.0000         5
 103.0500         5
 103.1000         3
 103.1500         5
 103.2000         7
 103.2500         4
 103.3000         5
 103.3500         3
 103.4000         6
 103.4500         5
 103.5000         4
 103.5500         1
 103.6000        10
 103.6500         5
 103.7000         8
 103.7500         7
 103.8000         7
 103.8500         5
 103.9000         4
 103.9500         4
 104.0000         5
 104.0500         2
 104.1000         8
 104.1500         6
 104.2000         4
 104.2500         5
 104.3000         6
 104.3500         6
 104.4000         3
 104.4500         6
 104.5000         9
 104.5500         3
 104.6000         2
 104.6500         4
 104.7000         4
 104.7500         7
 104.8000         2
 104.8500         5
 104.9000         6
 104.9500         6
 105.0000         7
 105.0500         3
 105.1000         4
 105.1500         5
 105.2000         1
 105.2500         9
 105.3000         3
 105.3500         8
 105.4000         9
 105.4500         7
 105.5000         7
 105.5500         4
 105.6000         3
 105.6500         8
 105.7000         3
 105.7500         4
 105.8000         6
 105.8500         3
 105.9000         9
 105.9500         7
 106.0000        10
 106.0500         5
 106.1000         7
 106.1500         5
 106.2000         6
 106.2500         4
 106.3000         2
 106.3500         6
 106.4000         8
 106.4500         5
 106.5000         4
 106.5500         3
 106.6000         7
 106.6500         9
 106.7000         9
 106.7500         2
 106.8000         6
 106.8500         6
 106.9000         3
 106.9500         5
 107.0000         6
 107.0500        11
 107.1000         3
 107.1500         5
 107.2000         9
 107.2500         7
 107.3000         6
 107.3500         5
 107.4000         5
 107.4500        10
 107.5000         7
 107.5500         5
 107.6000         7
 107.6500         6
 107.7000         7
 107.7500        18
 107.8000        13
 107.8500        17
 107.9000        27
 107.9500        45
 108.0000        44
 108.0500        45
 108.1000        24
 108.1500        40
 108.2000        15
 108.2500        18
 108.3000        11
 108.3500        23
 108.4000        32
 108.4500        33
 108.5000        12
 108.5500        10
 108.6000        10
 108.6500         5
 108.7000        10
 108.7500         8
 108.8000         4
 108.8500         7
 108.9000         6
 108.9500         6
 109.0000         7
 109.0500        10
 109.1000         7
 109.1500         4
 109.2000         3
 109.2500         3
 109.3000         6
 109.3500         3
 109.4000         3
 109.4500         5
 109.5000         4
 109.5500        10
 109.6000         4
 109.6500         5
 109.7000         5
 109.7500         3
 109.8000         7
 109.8500         3
 109.9000         1
 109.9500         4
 110.0000         7
