  20.0000         5
  20.0250         5
  20.0500         2
  20.0750         4
  20.1000         5
  20.1250         3
  20.1500         4
  20.1750         6
  20.2000         4
  20.2250         1
  20.2500         4
  20.2750         6
  20.3000         1
  20.3250         3
  20.3500         4
  20.3750         9
  20.4000         4
  20.4250         3
  20.4500         9
  20.4750         4
  20.5000         2
  20.5250         8
  20.5500         5
  20.5750         6
  20.6000         2
  20.6250         6
  20.6500         2
  20.6750         5
  20.7000         6
  20.7250         6
  20.7500         3
  20.7750         4
  20.8000         6
  20.8250         9
  20.8500         5
  20.8750         7
  20.9000         5
  20.9250         7
  20.9500         8
  20.9750         3
  21.0000         5
  21.0250         3
  21.0500         5
  21.0750         5
  21.1000         2
  21.1250         3
  21.1500         4
  21.1750         6
  21.2000         3
  21.2250         4
  21.2500         3
  21.2750         4
  21.3000         5
  21.3250         4
  21.3500         6
  21.3750         1
  21.4000         2
  21.4250         2
  21.4500         6
  21.4750         3
  21.5000         5
  21.5250         5
  21.5500         7
  21.5750         8
  21.6000         1
  21.6250         7
  21.6500         6
  21.6750         2
  21.7000         3
  21.7250         4
  21.7500         2
  21.7750         3
  21.8000         4
  21.8250         2
  21.8500         0
  21.8750         2
  21.9000         4
  21.9250         1
  21.9500         1
  21.9750         6
  22.0000         4
  22.0250         3
  22.0500         6
  22.0750         5
  22.1000         3
  22.1250         6
  22.1500         6
  22.1750         4
  22.2000         5
  22.2250         4
  22.2500         4
  22.2750         7
  22.3000         8
  22.3250        10
  22.3500         5
  22.3750         6
  22.4000        12
  22.4250         7
  22.4500         4
  22.4750         3
  22.5000         2
  22.5250         5
  22.5500         7
  22.5750         9
  22.6000         6
  22.6250         5
  22.6500         7
  22.6750         2
  22.7000         0
  22.7250         6
  22.7500         8
  22.7750         2
  22.8000         4
  22.8250         8
  22.8500         3
  22.8750         3
  22.9000         6
  22.9250         6
  22.9500         8
  22.9750         7
  23.0000         5
  23.0250         2
  23.0500         6
  23.0750        11
  23.1000         8
  23.1250         6
  23.1500         1
  23.1750         4
  23.2000         4
  23.2250         3
  23.2500         1
  23.2750         2
  23.3000         4
  23.3250         6
  23.3500         5
  23.3750         3
  23.4000         6
  23.4250         3
  23.4500        12
  23.4750         8
  23.5000         6
  23.5250         8
  23.5500         2
  23.5750         1
  23.6000         5
  23.6250         1
  23.6500         6
  23.6750         4
  23.7000         3
  23.7250         4
  23.7500         7
  23.7750         6
  23.8000         9
  23.8250         5
  23.8500         4
  23.8750         4
  23.9000         8
  23.9250         2
  23.9500         5
  23.9750         2
  24.0000         8
  24.0250         4
  24.0500         4
  24.0750         2
  24.1000         4
  24.1250         2
  24.1500         7
  24.1750         5
  24.2000         4
  24.2250         5
  24.2500         8
  24.2750         2
  24.3000         3
  24.3250         5
  24.3500         7
  24.3750         6
  24.4000         3
  24.4250         2
  24.4500         4
  24.4750         4
  24.5000         3
  24.5250         1
  24.5500         3
  24.5750         5
  24.6000         7
  24.6250         4
  24.6500         6
  24.6750         8
  24.7000         3
  24.7250        11
  24.7500         7
  24.7750         5
  24.8000         7
  24.8250         3
  24.8500         9
  24.8750         4
  24.9000         9
  24.9250         8
  24.9500         7
  24.9750         3
  25.0000         7
  25.0250         8
  25.0500         3
  25.0750         5
  25.1000         6
  25.1250         5
  25.1500         6
  25.1750         2
  25.2000         3
  25.2250         2
  25.2500         2
  25.2750         5
  25.3000         7
  25.3250         7
  25.3500         5
  25.3750         4
  25.4000         3
  25.4250         4
  25.4500         3
  25.4750         3
  25.5000         4
  25.5250         4
  25.5500         7
  25.5750         6
  25.6000         5
  25.6250         3
  25.6500         5
  25.6750         7
  25.7000         9
  25.7250         6
  25.7500         8
  25.7750         4
  25.8000        10
  25.8250         5
  25.8500         9
  25.8750         3
  25.9000         7
  25.9250         7
  25.9500         2
  25.9750         2
  26.0000         7
  26.0250         8
  26.0500         2
  26.0750         8
  26.1000         5
  26.1250         4
  26.1500         8
  26.1750         4
  26.2000         3
  26.2250         7
  26.2500         6
  26.2750         7
  26.3000         6
  26.3250         5
  26.3500         6
  26.3750         6
  26.4000        10
  26.4250         6
  26.4500         8
  26.4750         4
  26.5000         7
  26.5250         9
  26.5500         4
  26.5750         7
  26.6000         2
  26.6250         6
  26.6500        10
  26.6750         6
  26.7000         5
  26.7250         5
  26.7500         6
  26.7750         5
  26.8000        13
  26.8250         5
  26.8500         2
  26.8750         9
  26.9000         3
  26.9250         6
  26.9500        10
  26.9750         6
  27.0000         2
  27.0250        13
  27.0500         7
  27.0750         9
  27.1000         3
  27.1250         7
  27.1500         5
  27.1750         8
  27.2000         6
  27.2250         6
  27.2500         4
  27.2750         7
  27.3000         5
  27.3250         6
  27.3500         7
  27.3750         7
  27.4000        14
  27.4250         8
  27.4500         9
  27.4750         9
  27.5000         6
  27.5250         6
  27.5500         8
  27.5750         7
  27.6000         8
  27.6250         1
  27.6500         6
  27.6750         7
  27.7000         3
  27.7250         5
  27.7500         4
  27.7750         4
  27.8000         5
  27.8250         3
  27.8500         7
  27.8750         5
  27.9000         5
  27.9250         5
  27.9500        11
  27.9750         5
  28.0000         4
  28.0250        12
  28.0500         5
  28.0750         4
  28.1000         6
  28.1250         6
  28.1500        10
  28.1750         5
  28.2000         5
  28.2250        11
  28.2500         5
  28.2750         7
  28.3000         4
  28.3250         5
  28.3500         6
  28.3750         4
  28.4000         4
  28.4250         4
  28.4500         8
  28.4750         5
  28.5000         4
  28.5250         7
  28.5500        13
  28.5750         8
  28.6000         3
  28.6250        11
  28.6500         8
  28.6750         8
  28.7000         4
  28.7250         5
  28.7500         8
  28.7750         4
  28.8000         7
  28.8250         5
  28.8500         5
  28.8750         7
  28.9000         6
  28.9250         3
  28.9500         7
  28.9750         9
  29.0000         8
  29.0250         3
  29.0500         5
  29.0750         2
  29.1000         8
  29.1250         9
  29.1500         3
  29.1750         6
  29.2000        12
  29.2250         6
  29.2500         5
  29.2750         8
  29.3000         8
  29.3250         6
  29.3500         6
  29.3750         5
  29.4000         7
  29.4250         6
  29.4500         7
  29.4750        10
  29.5000         9
  29.5250         7
  29.5500         3
  29.5750         8
  29.6000         6
  29.6250         8
  29.6500         6
  29.6750         8
  29.7000        10
  29.7250        11
  29.7500         6
  29.7750         6
  29.8000         8
  29.8250         9
  29.8500         6
  29.8750         7
  29.9000        11
  29.9250         4
  29.9500        11
  29.9750        12
  30.0000         9
  30.0250        13
  30.0500        11
  30.0750        14
  30.1000         9
  30.1250         2
  30.1500         5
  30.1750         9
  30.2000         5
  30.2250        11
  30.2500        11
  30.2750         9
  30.3000        12
  30.3250        10
  30.3500         9
  30.3750        15
  30.4000        11
  30.4250        17
  30.4500        26
  30.4750        16
  30.5000        17
  30.5250        28
  30.5500        28
  30.5750        27
  30.6000        40
  30.6250        65
  30.6500       117
  30.6750       169
  30.7000       147
  30.7250       155
  30.7500       153
  30.7750       107
  30.8000        87
  30.8250        77
  30.8500        49
  30.8750        39
  30.9000        26
  30.9250        22
  30.9500        19
  30.9750        25
  31.0000        19
  31.0250        15
  31.0500        16
  31.0750        29
  31.1000        22
  31.1250        41
  31.1500        52
  31.1750        57
  31.2000        79
  31.2250       128
  31.2500       164
  31.2750       224
  31.3000       340
  31.3250       465
  31.3500       586
  31.3750       654
  31.4000       650
  31.4250       618
  31.4500       527
  31.4750       376
  31.5000       264
  31.5250       219
  31.5500       112
  31.5750        76
  31.6000        49
  31.6250        31
  31.6500        35
  31.6750        28
  31.7000        18
  31.7250        22
  31.7500        28
  31.7750        21
  31.8000        19
  31.8250        13
  31.8500        24
  31.8750        33
  31.9000        36
  31.9250        48
  31.9500        70
  31.9750        83
  32.0000       131
  32.0250       228
  32.0500       387
  32.0750       377
  32.1000       403
  32.1250       389
  32.1500       393
  32.1750       313
  32.2000       183
  32.2250       119
  32.2500        88
  32.2750        65
  32.3000        36
  32.3250        25
  32.3500        21
  32.3750        15
  32.4000        15
  32.4250        15
  32.4500        15
  32.4750        18
  32.5000        14
  32.5250        11
  32.5500         6
  32.5750        19
  32.6000        14
  32.6250        12
  32.6500         5
  32.6750         9
  32.7000        10
  32.7250         4
  32.7500         5
  32.7750         9
  32.8000        12
  32.8250         5
  32.8500        11
  32.8750        12
  32.9000        11
  32.9250         8
  32.9500         8
  32.9750        10
  33.0000         6
  33.0250        10
  33.0500         6
  33.0750         7
  33.1000        10
  33.1250        10
  33.1500         5
  33.1750        12
  33.2000         6
  33.2250        13
  33.2500         6
  33.2750        10
  33.3000        10
  33.3250         8
  33.3500         7
  33.3750         5
  33.4000         6
  33.4250         9
  33.4500        10
  33.4750        12
  33.5000        10
  33.5250         5
  33.5500         9
  33.5750         7
  33.6000         3
  33.6250         7
  33.6500         9
  33.6750         8
  33.7000         3
  33.7250        12
  33.7500         5
  33.7750         8
  33.8000        10
  33.8250         9
  33.8500        11
  33.8750        12
  33.9000         8
  33.9250        13
  33.9500         4
  33.9750         9
  34.0000         3
  34.0250         4
  34.0500         6
  34.0750         7
  34.1000         6
  34.1250         6
  34.1500         6
  34.1750         3
  34.2000         8
  34.2250         7
  34.2500         5
  34.2750         9
  34.3000         3
  34.3250         8
  34.3500         6
  34.3750         9
  34.4000         5
  34.4250         7
  34.4500         7
  34.4750         3
  34.5000        10
  34.5250         7
  34.5500         2
  34.5750         4
  34.6000         5
  34.6250         6
  34.6500         2
  34.6750        14
  34.7000         7
  34.7250         2
  34.7500         2
  34.7750        12
  34.8000         4
  34.8250         7
  34.8500         9
  34.8750         5
  34.9000         6
  34.9250        13
  34.9500         6
  34.9750         7
  35.0000         8
  35.0250         6
  35.0500         4
  35.0750         5
  35.1000        11
  35.1250         8
  35.1500        10
  35.1750        15
  35.2000         6
  35.2250        11
  35.2500         8
  35.2750         5
  35.3000         6
  35.3250        10
  35.3500         7
  35.3750         4
  35.4000        11
  35.4250         7
  35.4500         9
  35.4750         4
  35.5000         9
  35.5250        16
  35.5500         5
  35.5750        10
  35.6000         5
  35.6250        11
  35.6500         9
  35.6750         6
  35.7000         8
  35.7250         6
  35.7500         9
  35.7750         6
  35.8000        11
  35.8250         8
  35.8500         7
  35.8750        11
  35.9000         7
  35.9250         9
  35.9500        14
  35.9750         9
  36.0000         5
  36.0250        15
  36.0500        23
  36.0750        12
  36.1000        19
  36.1250        24
  36.1500        27
  36.1750        42
  36.2000        57
  36.2250        54
  36.2500        86
  36.2750       150
  36.3000       198
  36.3250       270
  36.3500       354
  36.3750       304
  36.4000       316
  36.4250       270
  36.4500       280
  36.4750       201
  36.5000       134
  36.5250       115
  36.5500        89
  36.5750        52
  36.6000        32
  36.6250        24
  36.6500        21
  36.6750        17
  36.7000        13
  36.7250        17
  36.7500        15
  36.7750         5
  36.8000        12
  36.8250        11
  36.8500         8
  36.8750         8
  36.9000        10
  36.9250        12
  36.9500        10
  36.9750         9
  37.0000         5
  37.0250         7
  37.0500         8
  37.0750         7
  37.1000         8
  37.1250         2
  37.1500         9
  37.1750         3
  37.2000        12
  37.2250         7
  37.2500         3
  37.2750         7
  37.3000         5
  37.3250         6
  37.3500         7
  37.3750         2
  37.4000         6
  37.4250         5
  37.4500         4
  37.4750         6
  37.5000         5
  37.5250         7
  37.5500         9
  37.5750         5
  37.6000         1
  37.6250        11
  37.6500         6
  37.6750         8
  37.7000         7
  37.7250         7
  37.7500         4
  37.7750         6
  37.8000         6
  37.8250         5
  37.8500         3
  37.8750         6
  37.9000         8
  37.9250         4
  37.9500         2
  37.9750         7
  38.0000         2
  38.0250         3
  38.0500         6
  38.0750         7
  38.1000         5
  38.1250         9
  38.1500         7
  38.1750        10
  38.2000         5
  38.2250         6
  38.2500         6
  38.2750        11
  38.3000         4
  38.3250         3
  38.3500         3
  38.3750         9
  38.4000         3
  38.4250         7
  38.4500         7
  38.4750         9
  38.5000         3
  38.5250         6
  38.5500         3
  38.5750         8
  38.6000         2
  38.6250         8
  38.6500         5
  38.6750         9
  38.7000         6
  38.7250         5
  38.7500         5
  38.7750         8
  38.8000         5
  38.8250         4
  38.8500         6
  38.8750         7
  38.9000         5
  38.9250         7
  38.9500         7
  38.9750         6
  39.0000         4
  39.0250         2
  39.0500         3
  39.0750         5
  39.1000         6
  39.1250         5
  39.1500         6
  39.1750         9
  39.2000         4
  39.2250         4
  39.2500         1
  39.2750         6
  39.3000         6
  39.3250         8
  39.3500        13
  39.3750         3
  39.4000         4
  39.4250         3
  39.4500         9
  39.4750         6
  39.5000         5
  39.5250         2
  39.5500         5
  39.5750         5
  39.6000         6
  39.6250         3
  39.6500         6
  39.6750         7
  39.7000         5
  39.7250         5
  39.7500         6
  39.7750         2
  39.8000         4
  39.8250         8
  39.8500         4
  39.8750         8
  39.9000         5
  39.9250         5
  39.9500         4
  39.9750         5
  40.0000         3
  40.0250         3
  40.0500         5
  40.0750         7
  40.1000         3
  40.1250         2
  40.1500         3
  40.1750         5
  40.2000         3
  40.2250         4
  40.2500         4
  40.2750         3
  40.3000         5
  40.3250         3
  40.3500         5
  40.3750         6
  40.4000         1
  40.4250         3
  40.4500         4
  40.4750         6
  40.5000         6
  40.5250         4
  40.5500         8
  40.5750         2
  40.6000         9
  40.6250         6
  40.6500         1
  40.6750         7
  40.7000         5
  40.7250         5
  40.7500         7
  40.7750         7
  40.8000         4
  40.8250         9
  40.8500         9
  40.8750        10
  40.9000         5
  40.9250         3
  40.9500         3
  40.9750         7
  41.0000         2
  41.0250         5
  41.0500         1
  41.0750         1
  41.1000         2
  41.1250         9
  41.1500         5
  41.1750         5
  41.2000         1
  41.2250         8
  41.2500         4
  41.2750         3
  41.3000         5
  41.3250         2
  41.3500         3
  41.3750         5
  41.4000         3
  41.4250         3
  41.4500         6
  41.4750         5
  41.5000         4
  41.5250         4
  41.5500         4
  41.5750         3
  41.6000         9
  41.6250         6
  41.6500         2
  41.6750         3
  41.7000         2
  41.7250         3
  41.7500         2
  41.7750         6
  41.8000         7
  41.8250         6
  41.8500         5
  41.8750         4
  41.9000         4
  41.9250         5
  41.9500         7
  41.9750         5
  42.0000         4
  42.0250         1
  42.0500         5
  42.0750         6
  42.1000        10
  42.1250         1
  42.1500         4
  42.1750         3
  42.2000        10
  42.2250         8
  42.2500         2
  42.2750        10
  42.3000         7
  42.3250         6
  42.3500         0
  42.3750         4
  42.4000         7
  42.4250         5
  42.4500         4
  42.4750         8
  42.5000         1
  42.5250         8
  42.5500         6
  42.5750         3
  42.6000         9
  42.6250         5
  42.6500         5
  42.6750         6
  42.7000         8
  42.7250         4
  42.7500         6
  42.7750         8
  42.8000         4
  42.8250         4
  42.8500         4
  42.8750         7
  42.9000         8
  42.9250         4
  42.9500         4
  42.9750         4
  43.0000        10
  43.0250         5
  43.0500         1
  43.0750         3
  43.1000         8
  43.1250         7
  43.1500         2
  43.1750         7
  43.2000         3
  43.2250         9
  43.2500         4
  43.2750         4
  43.3000         5
  43.3250         6
  43.3500         8
  43.3750         4
  43.4000         5
  43.4250         4
  43.4500         7
  43.4750         2
  43.5000         3
  43.5250        11
  43.5500         3
  43.5750         8
  43.6000         8
  43.6250         6
  43.6500         1
  43.6750         9
  43.7000        11
  43.7250         7
  43.7500         6
  43.7750         9
  43.8000         9
  43.8250        12
  43.8500        20
  43.8750        35
  43.9000        46
  43.9250        51
  43.9500        58
  43.9750        58
  44.0000        61
  44.0250        58
  44.0500        42
  44.0750        34
  44.1000        29
  44.1250        21
  44.1500        12
  44.1750        10
  44.2000         7
  44.2250         8
  44.2500         8
  44.2750        10
  44.3000        11
  44.3250         1
  44.3500         5
  44.3750         4
  44.4000        16
  44.4250         9
  44.4500         4
  44.4750         8
  44.5000         7
  44.5250         9
  44.5500         6
  44.5750         9
  44.6000        10
  44.6250         7
  44.6500         4
  44.6750         8
  44.7000         5
  44.7250        14
  44.7500        10
  44.7750        16
  44.8000        15
  44.8250        22
  44.8500        25
  44.8750        50
  44.9000        86
  44.9250       159
  44.9500       295
  44.9750       340
  45.0000       277
  45.0250       198
  45.0500       222
  45.0750       236
  45.1000       189
  45.1250       149
  45.1500        99
  45.1750        63
  45.2000        31
  45.2250        23
  45.2500        17
  45.2750        21
  45.3000        13
  45.3250         7
  45.3500        11
  45.3750         9
  45.4000        12
  45.4250         8
  45.4500         3
  45.4750         3
  45.5000         8
  45.5250         3
  45.5500         8
  45.5750         4
  45.6000         2
  45.6250        12
  45.6500         8
  45.6750         4
  45.7000         9
  45.7250         6
  45.7500         7
  45.7750         6
  45.8000         5
  45.8250         8
  45.8500         6
  45.8750         7
  45.9000         4
  45.9250         5
  45.9500         2
  45.9750         7
  46.0000         5
  46.0250         4
  46.0500         7
  46.0750         2
  46.1000         3
  46.1250         5
  46.1500         4
  46.1750         8
  46.2000         3
  46.2250         5
  46.2500         5
  46.2750         5
  46.3000         7
  46.3250         1
  46.3500         8
  46.3750         3
  46.4000         5
  46.4250         6
  46.4500         1
  46.4750         5
  46.5000         3
  46.5250         4
  46.5500         5
  46.5750         5
  46.6000         4
  46.6250         7
  46.6500         7
  46.6750        10
  46.7000         4
  46.7250         2
  46.7500        10
  46.7750         4
  46.8000        10
  46.8250         6
  46.8500         3
  46.8750         6
  46.9000         4
  46.9250         5
  46.9500         9
  46.9750         5
  47.0000         1
  47.0250         6
  47.0500         4
  47.0750         3
  47.1000         4
  47.1250         4
  47.1500         2
  47.1750         4
  47.2000         6
  47.2250         4
  47.2500         7
  47.2750         7
  47.3000         5
  47.3250         3
  47.3500         7
  47.3750         5
  47.4000         7
  47.4250         7
  47.4500         1
  47.4750         5
  47.5000         3
  47.5250         3
  47.5500         3
  47.5750         2
  47.6000         5
  47.6250         2
  47.6500         6
  47.6750         2
  47.7000         2
  47.7250         8
  47.7500         9
  47.7750         6
  47.8000         4
  47.8250         3
  47.8500         4
  47.8750         6
  47.9000         6
  47.9250        10
  47.9500         4
  47.9750         5
  48.0000         5
  48.0250         5
  48.0500         7
  48.0750         3
  48.1000         1
  48.1250         8
  48.1500         6
  48.1750         4
  48.2000         2
  48.2250         5
  48.2500         5
  48.2750         3
  48.3000         2
  48.3250         6
  48.3500         1
  48.3750         5
  48.4000         7
  48.4250         2
  48.4500         8
  48.4750         6
  48.5000         7
  48.5250         7
  48.5500         2
  48.5750         3
  48.6000         3
  48.6250         8
  48.6500         5
  48.6750         2
  48.7000         8
  48.7250         3
  48.7500         1
  48.7750         5
  48.8000         5
  48.8250         6
  48.8500         3
  48.8750         4
  48.9000         1
  48.9250         3
  48.9500         6
  48.9750         3
  49.0000         4
  49.0250         2
  49.0500         2
  49.0750         5
  49.1000         3
  49.1250         7
  49.1500         3
  49.1750         3
  49.2000         5
  49.2250         2
  49.2500         5
  49.2750         7
  49.3000         6
  49.3250         6
  49.3500         3
  49.3750         2
  49.4000         5
  49.4250         5
  49.4500         6
  49.4750         4
  49.5000         7
  49.5250         6
  49.5500         9
  49.5750         5
  49.6000         2
  49.6250         5
  49.6500         6
  49.6750         4
  49.7000         0
  49.7250         8
  49.7500         3
  49.7750         3
  49.8000         9
  49.8250         4
  49.8500         5
  49.8750         3
  49.9000         4
  49.9250         4
  49.9500         5
  49.9750         5
  50.0000         4
  50.0250         5
  50.0500         4
  50.0750         7
  50.1000         3
  50.1250        11
  50.1500         7
  50.1750         4
  50.2000         3
  50.2250         5
  50.2500         7
  50.2750         3
  50.3000         7
  50.3250         2
  50.3500         5
  50.3750         3
  50.4000         6
  50.4250         6
  50.4500         6
  50.4750        11
  50.5000         5
  50.5250         4
  50.5500         8
  50.5750         5
  50.6000         0
  50.6250         3
  50.6500         3
  50.6750         5
  50.7000         5
  50.7250         7
  50.7500         9
  50.7750         4
  50.8000         7
  50.8250         6
  50.8500         4
  50.8750         3
  50.9000         2
  50.9250         5
  50.9500         5
  50.9750         7
  51.0000         6
  51.0250         4
  51.0500         7
  51.0750         4
  51.1000         2
  51.1250         1
  51.1500         9
  51.1750         5
  51.2000         8
  51.2250         5
  51.2500         5
  51.2750         3
  51.3000         4
  51.3250         9
  51.3500         6
  51.3750         5
  51.4000        12
  51.4250         8
  51.4500         7
  51.4750         6
  51.5000         6
  51.5250         7
  51.5500         8
  51.5750        10
  51.6000         9
  51.6250         6
  51.6500         6
  51.6750         7
  51.7000         7
  51.7250        10
  51.7500         7
  51.7750         4
  51.8000         9
  51.8250         6
  51.8500         2
  51.8750         4
  51.9000         7
  51.9250         5
  51.9500        12
  51.9750         5
  52.0000         7
  52.0250         6
  52.0500         8
  52.0750        11
  52.1000        13
  52.1250        14
  52.1500        15
  52.1750        20
  52.2000        19
  52.2250        31
  52.2500        51
  52.2750        76
  52.3000       102
  52.3250       126
  52.3500       132
  52.3750       129
  52.4000       119
  52.4250        91
  52.4500        94
  52.4750        90
  52.5000        73
  52.5250        62
  52.5500        33
  52.5750        32
  52.6000        17
  52.6250        13
  52.6500        12
  52.6750        14
  52.7000         8
  52.7250        15
  52.7500         6
  52.7750        17
  52.8000         3
  52.8250         8
  52.8500         6
  52.8750         5
  52.9000         6
  52.9250        11
  52.9500         7
  52.9750         7
  53.0000         5
  53.0250         3
  53.0500         2
  53.0750        10
  53.1000         3
  53.1250         3
  53.1500         4
  53.1750         5
  53.2000         6
  53.2250         7
  53.2500         9
  53.2750        11
  53.3000         7
  53.3250        10
  53.3500         4
  53.3750        10
  53.4000         6
  53.4250         4
  53.4500         3
  53.4750         7
  53.5000         7
  53.5250         8
  53.5500         3
  53.5750         4
  53.6000         8
  53.6250         9
  53.6500         7
  53.6750         2
  53.7000         6
  53.7250         4
  53.7500         8
  53.7750         5
  53.8000        10
  53.8250         6
  53.8500         5
  53.8750         1
  53.9000        14
  53.9250         3
  53.9500         4
  53.9750         2
  54.0000         6
  54.0250         7
  54.0500         5
  54.0750         4
  54.1000         5
  54.1250         5
  54.1500         6
  54.1750         2
  54.2000         9
  54.2250        10
  54.2500         7
  54.2750         8
  54.3000         6
  54.3250         6
  54.3500         4
  54.3750         9
  54.4000         7
  54.4250         2
  54.4500         5
  54.4750         8
  54.5000         6
  54.5250         5
  54.5500         3
  54.5750         9
  54.6000         6
  54.6250         3
  54.6500         4
  54.6750         7
  54.7000         4
  54.7250         8
  54.7500         4
  54.7750         5
  54.8000         6
  54.8250         7
  54.8500         4
  54.8750         6
  54.9000         7
  54.9250         8
  54.9500         9
  54.9750         6
  55.0000         5
  55.0250        12
  55.0500        10
  55.0750         5
  55.1000         9
  55.1250         8
  55.1500         7
  55.1750        12
  55.2000         7
  55.2250         5
  55.2500         7
  55.2750        14
  55.3000        10
  55.3250        22
  55.3500        23
  55.3750        43
  55.4000        51
  55.4250        30
  55.4500        29
  55.4750        35
  55.5000        29
  55.5250        35
  55.5500        22
  55.5750        29
  55.6000        18
  55.6250        15
  55.6500        27
  55.6750        12
  55.7000         7
  55.7250         5
  55.7500        13
  55.7750         8
  55.8000         7
  55.8250         4
  55.8500         4
  55.8750         1
  55.9000         4
  55.9250         3
  55.9500         8
  55.9750         5
  56.0000         6
  56.0250         9
  56.0500         5
  56.0750        10
  56.1000         6
  56.1250        10
  56.1500         9
  56.1750         5
  56.2000         7
  56.2250         5
  56.2500         4
  56.2750        10
  56.3000         5
  56.3250         7
  56.3500         4
  56.3750         3
  56.4000         6
  56.4250         7
  56.4500        11
  56.4750         3
  56.5000         6
  56.5250         9
  56.5500         7
  56.5750         4
  56.6000         4
  56.6250         5
  56.6500         4
  56.6750         6
  56.7000         2
  56.7250        11
  56.7500         8
  56.7750         6
  56.8000         4
  56.8250         7
  56.8500        10
  56.8750         3
  56.9000         3
  56.9250         5
  56.9500         4
  56.9750         5
  57.0000         2
  57.0250        13
  57.0500         7
  57.0750         9
  57.1000         8
  57.1250         5
  57.1500         7
  57.1750         3
  57.2000         8
  57.2250        10
  57.2500         8
  57.2750         4
  57.3000         8
  57.3250         5
  57.3500         2
  57.3750         7
  57.4000         3
  57.4250         7
  57.4500         4
  57.4750         3
  57.5000         6
  57.5250         3
  57.5500         3
  57.5750        10
  57.6000         6
  57.6250        10
  57.6500         2
  57.6750         5
  57.7000         5
  57.7250         6
  57.7500         7
  57.7750         5
  57.8000         7
  57.8250         6
  57.8500         4
  57.8750         6
  57.9000         6
  57.9250         4
  57.9500        13
  57.9750         5
  58.0000         5
  58.0250         8
  58.0500         3
  58.0750         2
  58.1000         6
  58.1250        12
  58.1500         7
  58.1750         5
  58.2000        10
  58.2250         3
  58.2500         6
  58.2750         2
  58.3000         5
  58.3250         7
  58.3500         9
  58.3750         6
  58.4000         6
  58.4250         5
  58.4500         5
  58.4750         5
  58.5000         8
  58.5250         5
  58.5500         8
  58.5750         5
  58.6000         5
  58.6250         7
  58.6500         6
  58.6750         3
  58.7000         7
  58.7250        10
  58.7500         9
  58.7750         6
  58.8000         4
  58.8250         8
  58.8500         3
  58.8750         7
  58.9000         8
  58.9250         8
  58.9500        10
  58.9750         9
  59.0000        10
  59.0250        10
  59.0500         3
  59.0750        10
  59.1000         9
  59.1250         7
  59.1500         7
  59.1750         7
  59.2000         3
  59.2250         9
  59.2500         3
  59.2750         6
  59.3000         2
  59.3250         5
  59.3500         6
  59.3750         7
  59.4000         5
  59.4250         7
  59.4500         5
  59.4750        10
  59.5000         9
  59.5250        11
  59.5500         1
  59.5750         4
  59.6000         3
  59.6250         8
  59.6500        10
  59.6750         5
  59.7000         7
  59.7250         5
  59.7500        10
  59.7750         5
  59.8000         8
  59.8250        14
  59.8500         5
  59.8750         4
  59.9000         5
  59.9250         6
  59.9500         4
  59.9750         9
  60.0000         7
  60.0250         8
  60.0500         6
  60.0750         8
  60.1000         2
  60.1250         4
  60.1500         8
  60.1750         4
  60.2000         4
  60.2250         6
  60.2500         7
  60.2750        11
  60.3000        10
  60.3250         4
  60.3500         6
  60.3750         6
  60.4000         2
  60.4250        11
  60.4500         6
  60.4750         7
  60.5000         6
  60.5250         8
  60.5500         5
  60.5750         5
  60.6000         6
  60.6250         8
  60.6500         6
  60.6750         6
  60.7000        10
  60.7250         9
  60.7500         7
  60.7750         6
  60.8000        11
  60.8250         3
  60.8500         6
  60.8750         8
  60.9000         8
  60.9250        10
  60.9500        12
  60.9750         9
  61.0000        10
  61.0250         7
  61.0500         8
  61.0750        10
  61.1000         5
  61.1250        10
  61.1500        10
  61.1750         5
  61.2000         8
  61.2250         3
  61.2500         6
  61.2750         9
  61.3000         8
  61.3250         9
  61.3500         7
  61.3750        10
  61.4000        10
  61.4250         8
  61.4500         8
  61.4750         3
  61.5000         7
  61.5250         8
  61.5500         6
  61.5750        12
  61.6000        12
  61.6250         8
  61.6500        13
  61.6750        11
  61.7000         9
  61.7250         6
  61.7500        12
  61.7750         6
  61.8000         8
  61.8250         8
  61.8500        10
  61.8750         9
  61.9000         7
  61.9250        14
  61.9500         9
  61.9750        13
  62.0000        15
  62.0250        12
  62.0500        16
  62.0750        20
  62.1000        16
  62.1250        32
  62.1500        36
  62.1750        60
  62.2000        79
  62.2250       131
  62.2500       140
  62.2750       164
  62.3000       145
  62.3250       116
  62.3500        86
  62.3750       105
  62.4000        89
  62.4250       107
  62.4500        90
  62.4750        84
  62.5000        66
  62.5250        77
  62.5500       115
  62.5750       112
  62.6000        95
  62.6250        76
  62.6500        82
  62.6750        64
  62.7000        56
  62.7250        63
  62.7500        54
  62.7750        47
  62.8000        36
  62.8250        44
  62.8500        33
  62.8750        14
  62.9000        24
  62.9250        13
  62.9500        11
  62.9750         8
  63.0000        10
  63.0250         7
  63.0500         7
  63.0750         7
  63.1000         2
  63.1250         5
  63.1500        11
  63.1750        12
  63.2000         6
  63.2250         7
  63.2500         7
  63.2750         8
  63.3000         7
  63.3250         9
  63.3500         8
  63.3750         7
  63.4000         6
  63.4250         5
  63.4500         5
  63.4750         8
  63.5000         7
  63.5250         6
  63.5500         9
  63.5750         5
  63.6000         6
  63.6250        14
  63.6500         8
  63.6750        10
  63.7000         4
  63.7250         8
  63.7500         9
  63.7750        14
  63.8000        21
  63.8250        31
  63.8500        30
  63.8750        25
  63.9000        18
  63.9250        19
  63.9500        19
  63.9750        14
  64.0000        16
  64.0250        14
  64.0500        19
  64.0750         9
  64.1000        10
  64.1250        13
  64.1500         7
  64.1750        11
  64.2000         6
  64.2250         3
  64.2500        11
  64.2750         3
  64.3000         9
  64.3250        10
  64.3500        10
  64.3750         9
  64.4000         7
  64.4250         2
  64.4500        11
  64.4750         7
  64.5000        10
  64.5250        14
  64.5500        15
  64.5750        23
  64.6000        43
  64.6250        71
  64.6500        73
  64.6750        60
  64.7000        38
  64.7250        45
  64.7500        21
  64.7750        28
  64.8000        46
  64.8250        43
  64.8500        24
  64.8750        24
  64.9000        21
  64.9250        20
  64.9500        11
  64.9750        13
  65.0000         4
  65.0250         7
  65.0500         7
  65.0750        14
  65.1000        10
  65.1250         9
  65.1500         6
  65.1750        11
  65.2000         5
  65.2250        11
  65.2500        18
  65.2750        20
  65.3000        32
  65.3250        54
  65.3500        67
  65.3750        60
  65.4000        33
  65.4250        32
  65.4500        39
  65.4750        28
  65.5000        21
  65.5250        23
  65.5500        32
  65.5750        35
  65.6000        27
  65.6250        16
  65.6500        10
  65.6750         8
  65.7000         7
  65.7250         5
  65.7500         7
  65.7750         8
  65.8000        10
  65.8250         7
  65.8500        10
  65.8750         7
  65.9000         4
  65.9250         3
  65.9500         4
  65.9750         7
  66.0000         7
  66.0250         6
  66.0500         4
  66.0750        10
  66.1000        14
  66.1250         3
  66.1500        13
  66.1750         9
  66.2000         8
  66.2250         6
  66.2500         9
  66.2750         3
  66.3000        10
  66.3250         3
  66.3500         9
  66.3750         4
  66.4000         7
  66.4250         8
  66.4500         8
  66.4750         6
  66.5000         9
  66.5250         3
  66.5500         8
  66.5750         5
  66.6000         5
  66.6250         4
  66.6500         6
  66.6750         5
  66.7000         3
  66.7250         6
  66.7500         5
  66.7750         9
  66.8000         8
  66.8250         4
  66.8500         5
  66.8750         6
  66.9000         4
  66.9250         4
  66.9500         3
  66.9750         7
  67.0000         3
  67.0250         5
  67.0500         5
  67.0750         7
  67.1000         2
  67.1250         6
  67.1500        11
  67.1750         5
  67.2000         5
  67.2250         7
  67.2500         8
  67.2750         5
  67.3000         5
  67.3250         7
  67.3500         4
  67.3750         2
  67.4000         5
  67.4250         4
  67.4500         3
  67.4750         7
  67.5000         4
  67.5250         5
  67.5500         6
  67.5750         6
  67.6000         9
  67.6250         6
  67.6500         4
  67.6750         2
  67.7000         5
  67.7250         7
  67.7500        10
  67.7750         5
  67.8000         7
  67.8250         5
  67.8500         3
  67.8750         4
  67.9000         4
  67.9250         6
  67.9500         8
  67.9750         6
  68.0000         4
  68.0250         7
  68.0500         2
  68.0750         5
  68.1000         4
  68.1250         1
  68.1500         3
  68.1750         8
  68.2000         8
  68.2250         0
  68.2500         4
  68.2750         7
  68.3000         6
  68.3250         5
  68.3500         5
  68.3750         4
  68.4000         7
  68.4250         4
  68.4500         6
  68.4750         4
  68.5000         7
  68.5250         7
  68.5500         4
  68.5750         3
  68.6000         7
  68.6250         5
  68.6500         4
  68.6750         6
  68.7000         3
  68.7250         7
  68.7500         9
  68.7750         5
  68.8000         6
  68.8250         5
  68.8500         7
  68.8750         4
  68.9000         6
  68.9250         8
  68.9500         5
  68.9750         8
  69.0000         2
  69.0250         5
  69.0500         6
  69.0750         7
  69.1000         3
  69.1250         7
  69.1500         6
  69.1750         5
  69.2000         5
  69.2250         7
  69.2500         3
  69.2750         5
  69.3000         5
  69.3250         3
  69.3500         6
  69.3750         5
  69.4000         9
  69.4250         2
  69.4500         4
  69.4750         7
  69.5000         3
  69.5250         7
  69.5500         6
  69.5750         3
  69.6000         6
  69.6250         2
  69.6500         6
  69.6750         8
  69.7000         5
  69.7250         6
  69.7500         3
  69.7750         7
  69.8000         8
  69.8250         6
  69.8500         3
  69.8750         6
  69.9000         5
  69.9250         5
  69.9500         5
  69.9750         5
  70.0000         4
  70.0250         7
  70.0500         4
  70.0750         4
  70.1000         3
  70.1250         2
  70.1500         6
  70.1750         5
  70.2000         2
  70.2250         5
  70.2500         1
  70.2750         4
  70.3000         6
  70.3250         3
  70.3500         5
  70.3750         3
  70.4000         9
  70.4250         4
  70.4500         3
  70.4750         7
  70.5000         3
  70.5250         4
  70.5500         7
  70.5750         4
  70.6000         6
  70.6250         4
  70.6500         9
  70.6750         9
  70.7000         7
  70.7250         5
  70.7500        10
  70.7750         7
  70.8000         9
  70.8250         5
  70.8500         2
  70.8750         5
  70.9000         3
  70.9250         6
  70.9500         4
  70.9750         3
  71.0000         4
  71.0250         3
  71.0500         5
  71.0750         6
  71.1000         5
  71.1250         5
  71.1500         3
  71.1750         3
  71.2000         3
  71.2250        10
  71.2500         6
  71.2750         5
  71.3000        10
  71.3250         7
  71.3500         2
  71.3750         3
  71.4000         2
  71.4250         1
  71.4500         7
  71.4750         2
  71.5000         3
  71.5250         9
  71.5500         4
  71.5750         7
  71.6000         5
  71.6250         4
  71.6500         6
  71.6750         6
  71.7000         5
  71.7250         4
  71.7500        10
  71.7750         7
  71.8000         3
  71.8250         1
  71.8500         7
  71.8750         2
  71.9000        11
  71.9250         6
  71.9500         7
  71.9750         4
  72.0000         4
  72.0250        10
  72.0500         6
  72.0750         5
  72.1000         6
  72.1250         3
  72.1500         6
  72.1750         8
  72.2000         8
  72.2250         7
  72.2500         3
  72.2750        12
  72.3000         6
  72.3250         5
  72.3500         9
  72.3750         7
  72.4000        14
  72.4250        21
  72.4500        40
  72.4750        41
  72.5000        17
  72.5250        30
  72.5500        24
  72.5750        18
  72.6000        11
  72.6250        12
  72.6500        12
  72.6750        20
  72.7000        16
  72.7250        24
  72.7500        12
  72.7750         9
  72.8000        12
  72.8250         8
  72.8500         3
  72.8750         4
  72.9000         7
  72.9250         2
  72.9500         7
  72.9750         8
  73.0000         5
  73.0250         5
  73.0500        11
  73.0750        12
  73.1000         7
  73.1250        10
  73.1500        10
  73.1750        30
  73.2000        44
  73.2250        37
  73.2500        39
  73.2750        36
  73.3000        31
  73.3250        27
  73.3500        19
  73.3750        15
  73.4000        14
  73.4250        17
  73.4500        20
  73.4750        18
  73.5000        13
  73.5250        11
  73.5500         8
  73.5750        11
  73.6000         1
  73.6250         8
  73.6500         6
  73.6750         7
  73.7000         6
  73.7250         6
  73.7500         7
  73.7750         5
  73.8000         4
  73.8250         6
  73.8500         2
  73.8750         7
  73.9000         5
  73.9250         4
  73.9500         3
  73.9750         7
  74.0000         4
  74.0250         4
  74.0500         3
  74.0750         5
  74.1000         7
  74.1250         3
  74.1500         4
  74.1750         6
  74.2000         3
  74.2250         6
  74.2500         3
  74.2750         6
  74.3000         5
  74.3250         5
  74.3500         4
  74.3750         7
  74.4000         4
  74.4250         2
  74.4500         2
  74.4750         6
  74.5000         3
  74.5250         4
  74.5500         7
  74.5750         8
  74.6000         6
  74.6250         6
  74.6500         8
  74.6750         7
  74.7000         3
  74.7250         9
  74.7500         7
  74.7750         9
  74.8000         6
  74.8250         2
  74.8500         4
  74.8750         3
  74.9000         7
  74.9250        10
  74.9500         8
  74.9750         5
  75.0000         6
  75.0250         4
  75.0500         5
  75.0750         5
  75.1000         3
  75.1250         9
  75.1500         5
  75.1750         4
  75.2000         4
  75.2250         5
  75.2500         4
  75.2750         4
  75.3000         9
  75.3250         6
  75.3500         5
  75.3750         4
  75.4000         3
  75.4250         6
  75.4500         3
  75.4750         6
  75.5000         1
  75.5250         8
  75.5500         6
  75.5750         5
  75.6000         3
  75.6250         7
  75.6500         5
  75.6750         4
  75.7000         6
  75.7250        10
  75.7500         6
  75.7750         6
  75.8000         6
  75.8250         5
  75.8500         4
  75.8750         7
  75.9000         6
  75.9250         9
  75.9500         4
  75.9750         6
  76.0000         2
  76.0250         4
  76.0500         6
  76.0750         2
  76.1000         3
  76.1250         7
  76.1500         4
  76.1750         5
  76.2000         5
  76.2250         4
  76.2500         6
  76.2750        10
  76.3000         6
  76.3250         2
  76.3500         3
  76.3750         6
  76.4000         2
  76.4250         4
  76.4500         8
  76.4750         6
  76.5000         8
  76.5250         4
  76.5500         3
  76.5750         8
  76.6000         5
  76.6250         1
  76.6500         7
  76.6750         4
  76.7000         7
  76.7250         8
  76.7500         7
  76.7750         6
  76.8000         8
  76.8250         4
  76.8500         3
  76.8750         6
  76.9000         9
  76.9250         9
  76.9500         5
  76.9750         5
  77.0000         9
  77.0250        10
  77.0500        11
  77.0750        10
  77.1000        21
  77.1250        14
  77.1500        17
  77.1750        14
  77.2000        17
  77.2250        14
  77.2500         9
  77.2750         6
  77.3000         8
  77.3250        21
  77.3500        11
  77.3750         8
  77.4000        13
  77.4250         9
  77.4500        12
  77.4750        11
  77.5000         7
  77.5250         5
  77.5500         4
  77.5750         7
  77.6000         5
  77.6250         2
  77.6500         8
  77.6750         6
  77.7000         8
  77.7250         7
  77.7500         5
  77.7750         7
  77.8000         7
  77.8250         6
  77.8500         5
  77.8750         3
  77.9000         4
  77.9250         4
  77.9500         3
  77.9750         8
  78.0000         2
  78.0250         3
  78.0500         3
  78.0750         4
  78.1000         6
  78.1250         2
  78.1500         3
  78.1750        11
  78.2000         8
  78.2250         6
  78.2500         3
  78.2750         5
  78.3000         2
  78.3250         8
  78.3500         6
  78.3750         4
  78.4000         4
  78.4250         2
  78.4500         7
  78.4750         6
  78.5000         6
  78.5250         5
  78.5500         5
  78.5750         4
  78.6000         3
  78.6250         5
  78.6500         6
  78.6750         6
  78.7000         8
  78.7250         3
  78.7500         6
  78.7750         4
  78.8000         4
  78.8250         2
  78.8500        12
  78.8750         7
  78.9000         3
  78.9250         4
  78.9500         3
  78.9750         5
  79.0000         4
  79.0250         5
  79.0500         5
  79.0750         4
  79.1000         4
  79.1250         4
  79.1500         1
  79.1750         3
  79.2000         8
  79.2250         7
  79.2500         9
  79.2750         7
  79.3000         7
  79.3250         1
  79.3500         4
  79.3750        13
  79.4000         9
  79.4250        10
  79.4500        20
  79.4750        23
  79.5000        31
  79.5250        57
  79.5500       104
  79.5750        88
  79.6000        68
  79.6250        65
  79.6500        38
  79.6750        25
  79.7000        19
  79.7250        23
  79.7500        29
  79.7750        37
  79.8000        44
  79.8250        44
  79.8500        27
  79.8750        23
  79.9000        14
  79.9250        15
  79.9500         9
  79.9750         5
  80.0000         6
  80.0250         4
  80.0500        10
  80.0750         2
  80.1000         2
  80.1250         3
  80.1500         6
  80.1750         5
  80.2000         4
  80.2250         4
  80.2500         8
  80.2750         3
  80.3000         5
  80.3250         4
  80.3500         2
  80.3750         7
  80.4000         5
  80.4250         5
  80.4500         8
  80.4750         2
  80.5000         3
  80.5250         4
  80.5500         7
  80.5750         6
  80.6000         2
  80.6250         4
  80.6500         5
  80.6750         7
  80.7000         1
  80.7250         6
  80.7500         7
  80.7750         4
  80.8000         6
  80.8250         3
  80.8500         3
  80.8750         7
  80.9000         3
  80.9250         8
  80.9500         8
  80.9750         6
  81.0000         2
  81.0250         8
  81.0500         9
  81.0750         5
  81.1000         4
  81.1250         2
  81.1500         2
  81.1750         3
  81.2000         5
  81.2250         6
  81.2500         5
  81.2750         4
  81.3000         6
  81.3250         3
  81.3500         5
  81.3750         5
  81.4000         3
  81.4250         2
  81.4500         6
  81.4750         5
  81.5000         5
  81.5250         4
  81.5500         6
  81.5750         5
  81.6000         4
  81.6250         3
  81.6500         3
  81.6750         6
  81.7000         5
  81.7250         4
  81.7500         6
  81.7750         3
  81.8000         6
  81.8250         3
  81.8500         5
  81.8750         5
  81.9000         8
  81.9250         4
  81.9500         4
  81.9750         3
  82.0000         5
  82.0250         6
  82.0500         5
  82.0750         5
  82.1000         3
  82.1250         7
  82.1500         6
  82.1750         3
  82.2000         4
  82.2250         4
  82.2500         2
  82.2750         4
  82.3000         3
  82.3250         7
  82.3500         9
  82.3750         4
  82.4000         2
  82.4250         6
  82.4500         2
  82.4750         6
  82.5000         6
  82.5250         9
  82.5500         5
  82.5750         8
  82.6000         6
  82.6250         7
  82.6500         3
  82.6750         3
  82.7000         3
  82.7250         4
  82.7500         5
  82.7750         2
  82.8000         1
  82.8250         8
  82.8500         5
  82.8750         1
  82.9000         3
  82.9250         2
  82.9500         1
  82.9750         4
  83.0000         4
  83.0250         0
  83.0500         3
  83.0750         4
  83.1000         4
  83.1250         5
  83.1500         6
  83.1750        13
  83.2000         6
  83.2250         7
  83.2500         3
  83.2750         8
  83.3000         3
  83.3250         8
  83.3500         4
  83.3750         5
  83.4000         6
  83.4250         4
  83.4500         4
  83.4750         3
  83.5000         6
  83.5250         6
  83.5500         6
  83.5750        12
  83.6000         5
  83.6250        10
  83.6500         1
  83.6750         4
  83.7000         3
  83.7250         6
  83.7500         4
  83.7750         6
  83.8000         7
  83.8250         6
  83.8500         4
  83.8750         4
  83.9000         2
  83.9250         9
  83.9500         7
  83.9750         4
  84.0000         7
  84.0250         4
  84.0500        10
  84.0750         7
  84.1000         7
  84.1250         7
  84.1500         9
  84.1750         2
  84.2000         5
  84.2250         7
  84.2500         6
  84.2750         3
  84.3000         4
  84.3250         3
  84.3500         7
  84.3750         5
  84.4000         3
  84.4250         5
  84.4500         7
  84.4750         4
  84.5000         5
  84.5250         3
  84.5500         8
  84.5750         4
  84.6000         6
  84.6250         4
  84.6500         2
  84.6750         2
  84.7000         5
  84.7250         5
  84.7500         8
  84.7750         7
  84.8000         6
  84.8250         3
  84.8500         4
  84.8750         4
  84.9000         6
  84.9250        10
  84.9500         9
  84.9750         6
  85.0000         2
  85.0250         9
  85.0500        10
  85.0750         4
  85.1000         9
  85.1250         8
  85.1500         7
  85.1750         4
  85.2000         6
  85.2250        10
  85.2500         8
  85.2750         8
  85.3000         7
  85.3250         5
  85.3500         4
  85.3750        14
  85.4000         9
  85.4250         9
  85.4500        12
  85.4750        21
  85.5000        21
  85.5250        47
  85.5500        47
  85.5750        56
  85.6000        45
  85.6250        29
  85.6500        30
  85.6750        22
  85.7000        18
  85.7250        21
  85.7500        23
  85.7750        20
  85.8000        34
  85.8250        30
  85.8500        31
  85.8750        21
  85.9000        18
  85.9250        10
  85.9500         7
  85.9750         7
  86.0000         8
  86.0250         5
  86.0500        11
  86.0750         5
  86.1000         6
  86.1250         3
  86.1500         3
  86.1750         5
  86.2000         8
  86.2250         4
  86.2500         6
  86.2750         4
  86.3000         8
  86.3250         5
  86.3500         6
  86.3750         7
  86.4000         3
  86.4250         3
  86.4500         4
  86.4750         7
  86.5000         5
  86.5250         4
  86.5500         3
  86.5750        11
  86.6000         3
  86.6250         9
  86.6500         9
  86.6750         9
  86.7000         8
  86.7250         4
  86.7500         5
  86.7750         6
  86.8000         5
  86.8250         8
  86.8500         4
  86.8750         8
  86.9000         5
  86.9250         5
  86.9500         6
  86.9750         2
  87.0000         4
  87.0250         8
  87.0500         5
  87.0750         7
  87.1000         6
  87.1250         8
  87.1500         5
  87.1750        13
  87.2000         5
  87.2250         9
  87.2500         8
  87.2750         3
  87.3000         5
  87.3250         8
  87.3500         3
  87.3750         6
  87.4000         8
  87.4250         5
  87.4500         2
  87.4750         8
  87.5000         6
  87.5250         3
  87.5500         5
  87.5750        10
  87.6000         2
  87.6250         7
  87.6500         8
  87.6750         5
  87.7000         8
  87.7250         3
  87.7500         5
  87.7750         3
  87.8000         5
  87.8250         4
  87.8500         6
  87.8750        10
  87.9000         7
  87.9250         8
  87.9500         7
  87.9750        12
  88.0000         7
  88.0250         4
  88.0500         3
  88.0750         6
  88.1000        12
  88.1250         6
  88.1500         8
  88.1750        10
  88.2000        14
  88.2250        15
  88.2500        23
  88.2750        14
  88.3000        25
  88.3250        34
  88.3500        38
  88.3750        39
  88.4000        34
  88.4250        34
  88.4500        21
  88.4750        23
  88.5000        15
  88.5250        15
  88.5500        14
  88.5750        18
  88.6000        17
  88.6250        17
  88.6500        24
  88.6750        25
  88.7000        11
  88.7250        13
  88.7500        17
  88.7750        13
  88.8000        11
  88.8250         6
  88.8500         6
  88.8750         6
  88.9000         7
  88.9250         7
  88.9500         8
  88.9750         5
  89.0000         7
  89.0250         7
  89.0500         7
  89.0750         8
  89.1000         8
  89.1250        10
  89.1500         6
  89.1750         7
  89.2000         7
  89.2250         4
  89.2500         6
  89.2750         7
  89.3000         7
  89.3250         8
  89.3500         9
  89.3750         6
  89.4000         8
  89.4250        13
  89.4500        23
  89.4750        21
  89.5000        26
  89.5250        41
  89.5500        23
  89.5750        20
  89.6000         9
  89.6250        12
  89.6500         8
  89.6750        11
  89.7000         7
  89.7250        12
  89.7500        12
  89.7750        14
  89.8000        18
  89.8250        13
  89.8500        13
  89.8750        11
  89.9000         5
  89.9250         4
  89.9500         6
  89.9750         9
  90.0000         6
  90.0250         6
  90.0500         8
  90.0750         6
  90.1000         2
  90.1250         6
  90.1500        11
  90.1750         4
  90.2000         2
  90.2250         0
  90.2500         8
  90.2750         8
  90.3000         8
  90.3250         5
  90.3500         4
  90.3750         5
  90.4000         7
  90.4250         7
  90.4500         6
  90.4750         6
  90.5000         4
  90.5250         6
  90.5500         2
  90.5750         7
  90.6000         5
  90.6250         4
  90.6500         2
  90.6750        11
  90.7000         4
  90.7250         4
  90.7500         4
  90.7750         6
  90.8000        11
  90.8250         5
  90.8500         8
  90.8750         4
  90.9000         3
  90.9250         1
  90.9500         3
  90.9750         3
  91.0000         4
  91.0250         7
  91.0500         7
  91.0750         3
  91.1000         7
  91.1250         4
  91.1500         2
  91.1750         9
  91.2000         2
  91.2250         4
  91.2500         6
  91.2750         8
  91.3000         2
  91.3250         5
  91.3500         5
  91.3750         3
  91.4000        10
  91.4250        10
  91.4500         4
  91.4750         7
  91.5000         3
  91.5250         8
  91.5500         4
  91.5750         3
  91.6000         4
  91.6250         3
  91.6500         4
  91.6750         4
  91.7000         2
  91.7250         7
  91.7500         5
  91.7750         4
  91.8000         2
  91.8250         3
  91.8500         6
  91.8750         3
  91.9000         9
  91.9250         2
  91.9500         2
  91.9750         3
  92.0000         8
  92.0250         6
  92.0500         4
  92.0750         2
  92.1000         5
  92.1250         5
  92.1500         6
  92.1750         3
  92.2000         4
  92.2250         4
  92.2500         7
  92.2750         6
  92.3000         5
  92.3250         6
  92.3500         2
  92.3750         4
  92.4000         3
  92.4250         2
  92.4500         8
  92.4750         2
  92.5000         8
  92.5250         6
  92.5500         7
  92.5750         7
  92.6000         4
  92.6250         3
  92.6500         4
  92.6750         2
  92.7000         8
  92.7250         0
  92.7500         5
  92.7750         4
  92.8000         5
  92.8250         7
  92.8500         4
  92.8750         6
  92.9000         4
  92.9250         2
  92.9500         4
  92.9750         2
  93.0000         1
  93.0250         3
  93.0500         9
  93.0750         4
  93.1000         3
  93.1250         5
  93.1500         2
  93.1750         3
  93.2000         5
  93.2250         5
  93.2500         9
  93.2750         2
  93.3000         7
  93.3250         5
  93.3500         3
  93.3750         4
  93.4000         2
  93.4250         4
  93.4500         6
  93.4750         5
  93.5000         6
  93.5250         5
  93.5500         3
  93.5750         4
  93.6000         4
  93.6250         8
  93.6500         4
  93.6750        11
  93.7000         3
  93.7250         8
  93.7500         1
  93.7750         5
  93.8000         6
  93.8250         7
  93.8500         8
  93.8750         5
  93.9000         6
  93.9250         5
  93.9500         5
  93.9750         5
  94.0000         8
  94.0250         6
  94.0500         6
  94.0750         2
  94.1000         8
  94.1250         6
  94.1500         3
  94.1750         5
  94.2000         2
  94.2250         7
  94.2500         1
  94.2750         7
  94.3000         4
  94.3250         4
  94.3500         6
  94.3750         5
  94.4000         8
  94.4250         4
  94.4500         6
  94.4750         9
  94.5000         9
  94.5250        10
  94.5500         7
  94.5750         4
  94.6000         7
  94.6250         8
  94.6500         8
  94.6750         8
  94.7000         7
  94.7250         1
  94.7500         8
  94.7750         4
  94.8000         5
  94.8250         7
  94.8500        10
  94.8750         4
  94.9000         6
  94.9250         5
  94.9500         9
  94.9750         8
  95.0000         8
  95.0250         6
  95.0500         9
  95.0750         3
  95.1000         6
  95.1250         9
  95.1500         5
  95.1750        11
  95.2000        13
  95.2250        14
  95.2500        11
  95.2750        11
  95.3000        10
  95.3250         7
  95.3500        11
  95.3750         7
  95.4000         7
  95.4250        10
  95.4500         6
  95.4750        11
  95.5000         6
  95.5250        14
  95.5500         6
  95.5750        16
  95.6000        13
  95.6250        12
  95.6500        15
  95.6750        15
  95.7000        16
  95.7250        10
  95.7500         4
  95.7750        12
  95.8000         6
  95.8250         6
  95.8500         6
  95.8750         9
  95.9000        11
  95.9250        12
  95.9500         4
  95.9750         9
  96.0000        10
  96.0250        10
  96.0500         6
  96.0750         9
  96.1000         6
  96.1250         2
  96.1500         2
  96.1750         4
  96.2000         6
  96.2250         5
  96.2500         9
  96.2750         6
  96.3000         7
  96.3250         0
  96.3500         3
  96.3750         4
  96.4000         4
  96.4250         2
  96.4500         1
  96.4750         3
  96.5000         9
  96.5250         4
  96.5500         7
  96.5750         6
  96.6000         1
  96.6250         9
  96.6500         7
  96.6750         7
  96.7000         7
  96.7250         7
  96.7500        14
  96.7750        11
  96.8000         4
  96.8250         7
  96.8500        12
  96.8750         4
  96.9000         9
  96.9250         4
  96.9500         8
  96.9750         7
  97.0000         6
  97.0250         8
  97.0500         9
  97.0750         6
  97.1000         6
  97.1250         6
  97.1500         7
  97.1750         4
  97.2000         4
  97.2250         6
  97.2500         8
  97.2750         5
  97.3000        13
  97.3250         6
  97.3500         6
  97.3750         7
  97.4000         8
  97.4250        12
  97.4500        12
  97.4750        27
  97.5000        21
  97.5250        30
  97.5500        22
  97.5750        19
  97.6000        15
  97.6250         7
  97.6500        12
  97.6750         7
  97.7000        13
  97.7250        14
  97.7500         9
  97.7750        13
  97.8000         6
  97.8250        11
  97.8500        12
  97.8750         9
  97.9000        11
  97.9250        11
  97.9500         5
  97.9750         3
  98.0000         9
  98.0250         7
  98.0500         6
  98.0750         9
  98.1000         6
  98.1250         4
  98.1500         5
  98.1750         7
  98.2000         9
  98.2250         5
  98.2500         4
  98.2750         2
  98.3000         4
  98.3250         6
  98.3500         7
  98.3750         4
  98.4000         9
  98.4250         6
  98.4500         7
  98.4750         4
  98.5000         5
  98.5250         7
  98.5500         2
  98.5750         3
  98.6000         5
  98.6250         4
  98.6500         3
  98.6750         8
  98.7000         1
  98.7250         4
  98.7500         5
  98.7750         7
  98.8000         5
  98.8250         3
  98.8500         4
  98.8750         8
  98.9000         5
  98.9250         7
  98.9500         5
  98.9750         4
  99.0000         2
  99.0250         8
  99.0500         3
  99.0750        11
  99.1000         5
  99.1250         8
  99.1500        12
  99.1750         6
  99.2000        10
  99.2250        12
  99.2500         9
  99.2750         8
  99.3000         8
  99.3250        13
  99.3500        15
  99.3750        13
  99.4000        19
  99.4250        19
  99.4500        31
  99.4750        45
  99.5000        65
  99.5250        42
  99.5500        31
  99.5750        32
  99.6000        15
  99.6250        20
  99.6500        11
  99.6750        13
  99.7000        14
  99.7250        14
  99.7500        16
  99.7750        14
  99.8000        26
  99.8250        31
  99.8500        28
  99.8750        22
  99.9000        12
  99.9250        15
  99.9500         6
  99.9750        10
 100.0000         8
 100.0250        10
 100.0500         8
 100.0750        10
 100.1000         6
 100.1250         4
 100.1500         8
 100.1750         9
 100.2000         9
 100.2250         5
 100.2500         5
 100.2750         8
 100.3000         7
 100.3250         6
 100.3500         4
 100.3750         8
 100.4000         8
 100.4250         2
 100.4500         2
 100.4750         5
 100.5000         7
 100.5250         3
 100.5500         5
 100.5750         5
 100.6000         7
 100.6250         5
 100.6500         8
 100.6750         6
 100.7000         1
 100.7250         3
 100.7500         6
 100.7750         2
 100.8000         3
 100.8250         5
 100.8500         4
 100.8750         6
 100.9000        11
 100.9250         3
 100.9500         7
 100.9750         5
 101.0000         6
 101.0250         3
 101.0500         3
 101.0750         4
 101.1000         4
 101.1250         9
 101.1500         5
 101.1750         3
 101.2000         4
 101.2250         6
 101.2500         5
 101.2750         4
 101.3000         4
 101.3250         4
 101.3500         7
 101.3750         6
 101.4000         4
 101.4250         9
 101.4500         8
 101.4750         6
 101.5000         6
 101.5250         4
 101.5500         4
 101.5750         5
 101.6000         7
 101.6250         2
 101.6500         7
 101.6750         9
 101.7000         5
 101.7250         3
 101.7500         5
 101.7750         5
 101.8000         3
 101.8250         7
 101.8500         8
 101.8750         2
 101.9000         8
 101.9250         2
 101.9500         7
 101.9750         2
 102.0000         5
 102.0250         3
 102.0500         7
 102.0750         8
 102.1000         9
 102.1250        10
 102.1500         5
 102.1750         3
 102.2000         1
 102.2250         4
 102.2500         6
 102.2750        11
 102.3000         5
 102.3250         6
 102.3500         2
 102.3750         5
 102.4000         2
 102.4250         3
 102.4500         2
 102.4750        10
 102.5000         8
 102.5250         6
 102.5500         6
 102.5750         4
 102.6000         5
 102.6250         6
 102.6500         3
 102.6750         3
 102.7000         2
 102.7250         6
 102.7500         7
 102.7750         6
 102.8000        10
 102.8250         2
 102.8500         5
 102.8750         7
 102.9000         9
 102.9250         5
 102.9500         3
 102.9750         9
 103.0000         5
 103.0250         7
 103.0500         7
 103.0750         6
 103.1000         4
 103.1250        10
 103.1500         6
 103.1750         6
 103.2000        11
 103.2250        12
 103.2500        17
 103.2750        15
 103.3000        27
 103.3250        22
 103.3500        12
 103.3750        28
 103.4000        20
 103.4250        13
 103.4500        12
 103.4750         7
 103.5000         7
 103.5250         7
 103.5500         5
 103.5750         6
 103.6000         2
 103.6250        13
 103.6500         7
 103.6750        21
 103.7000         9
 103.7250        15
 103.7500        13
 103.7750         8
 103.8000        11
 103.8250        10
 103.8500         6
 103.8750         6
 103.9000         5
 103.9250         6
 103.9500         5
 103.9750         8
 104.0000         6
 104.0250         2
 104.0500         0
 104.0750         4
 104.1000         6
 104.1250         4
 104.1500         4
 104.1750         6
 104.2000         7
 104.2250         8
 104.2500         7
 104.2750         6
 104.3000         3
 104.3250         8
 104.3500         6
 104.3750         3
 104.4000         4
 104.4250         0
 104.4500         3
 104.4750         6
 104.5000         3
 104.5250         3
 104.5500         8
 104.5750         2
 104.6000         5
 104.6250         9
 104.6500         4
 104.6750         3
 104.7000         7
 104.7250         9
 104.7500         8
 104.7750         7
 104.8000         6
 104.8250         7
 104.8500         7
 104.8750         5
 104.9000         7
 104.9250         5
 104.9500         7
 104.9750         4
 105.0000         8
 105.0250         3
 105.0500         4
 105.0750         8
 105.1000         7
 105.1250         7
 105.1500         7
 105.1750         4
 105.2000         5
 105.2250         5
 105.2500         7
 105.2750         7
 105.3000         8
 105.3250        11
 105.3500        11
 105.3750         9
 105.4000         6
 105.4250         3
 105.4500         9
 105.4750         1
 105.5000         6
 105.5250         7
 105.5500         4
 105.5750         7
 105.6000         3
 105.6250         6
 105.6500         5
 105.6750         3
 105.7000         9
 105.7250         8
 105.7500         2
 105.7750         6
 105.8000         4
 105.8250         5
 105.8500        14
 105.8750         8
 105.9000         5
 105.9250         6
 105.9500         4
 105.9750         6
 106.0000         5
 106.0250         6
 106.0500         4
 106.0750         4
 106.1000         3
 106.1250         5
 106.1500        11
 106.1750         4
 106.2000        12
 106.2250         4
 106.2500         6
 106.2750         8
 106.3000         7
 106.3250         4
 106.3500         4
 106.3750         7
 106.4000         2
 106.4250         5
 106.4500        11
 106.4750         2
 106.5000         5
 106.5250         5
 106.5500         3
 106.5750         8
 106.6000         8
 106.6250         3
 106.6500         9
 106.6750         3
 106.7000         6
 106.7250         4
 106.7500         8
 106.7750         2
 106.8000         8
 106.8250         4
 106.8500         7
 106.8750         3
 106.9000         4
 106.9250         7
 106.9500         9
 106.9750         6
 107.0000         4
 107.0250         9
 107.0500         5
 107.0750         8
 107.1000         5
 107.1250         4
 107.1500         5
 107.1750         4
 107.2000         5
 107.2250         3
 107.2500         7
 107.2750         5
 107.3000         9
 107.3250         6
 107.3500         3
 107.3750         1
 107.4000         5
 107.4250         4
 107.4500         5
 107.4750        11
 107.5000         7
 107.5250         5
 107.5500         4
 107.5750         4
 107.6000         9
 107.6250         8
 107.6500        11
 107.6750         6
 107.7000        10
 107.7250         5
 107.7500         5
 107.7750         5
 107.8000         7
 107.8250         8
 107.8500        12
 107.8750         8
 107.9000        14
 107.9250         8
 107.9500         9
 107.9750        14
 108.0000        16
 108.0250        20
 108.0500        27
 108.0750        34
 108.1000        38
 108.1250        27
 108.1500        23
 108.1750        23
 108.2000        15
 108.2250        16
 108.2500         6
 108.2750        15
 108.3000         9
 108.3250        11
 108.3500        12
 108.3750        16
 108.4000        12
 108.4250        18
 108.4500        17
 108.4750        25
 108.5000        19
 108.5250        16
 108.5500        18
 108.5750        11
 108.6000        11
 108.6250         6
 108.6500        10
 108.6750         7
 108.7000         8
 108.7250        14
 108.7500         5
 108.7750         8
 108.8000         6
 108.8250         5
 108.8500         7
 108.8750         8
 108.9000         7
 108.9250         4
 108.9500         6
 108.9750         8
 109.0000         5
 109.0250         1
 109.0500         2
 109.0750         8
 109.1000         2
 109.1250         7
 109.1500         3
 109.1750         8
 109.2000         4
 109.2250         7
 109.2500         7
 109.2750         6
 109.3000         7
 109.3250         6
 109.3500         7
 109.3750         1
 109.4000         5
 109.4250         9
 109.4500         8
 109.4750         5
 109.5000         6
 109.5250         5
 109.5500         8
 109.5750         6
 109.6000         4
 109.6250         5
 109.6500         8
 109.6750         8
 109.7000         7
 109.7250         6
 109.7500         1
 109.7750         3
 109.8000         2
 109.8250         5
 109.8500         9
 109.8750         6
 109.9000         5
 109.9250         1
 109.9500         4
 109.9750         5
 110.0000         1
