  20.0000        10
  20.0250         6
  20.0500         5
  20.0750         2
  20.1000         7
  20.1250         3
  20.1500         6
  20.1750         1
  20.2000         5
  20.2250         5
  20.2500         8
  20.2750         6
  20.3000         5
  20.3250         2
  20.3500         5
  20.3750         6
  20.4000         4
  20.4250         4
  20.4500         2
  20.4750         4
  20.5000         3
  20.5250         8
  20.5500         1
  20.5750         1
  20.6000         7
  20.6250         6
  20.6500         6
  20.6750         4
  20.7000         4
  20.7250         7
  20.7500         4
  20.7750         7
  20.8000         6
  20.8250         2
  20.8500         3
  20.8750         4
  20.9000         6
  20.9250         5
  20.9500         5
  20.9750         4
  21.0000         1
  21.0250         6
  21.0500         3
  21.0750         6
  21.1000         4
  21.1250         3
  21.1500         3
  21.1750         2
  21.2000         4
  21.2250         7
  21.2500         2
  21.2750         3
  21.3000         3
  21.3250         3
  21.3500         4
  21.3750         7
  21.4000         7
  21.4250         7
  21.4500         1
  21.4750         8
  21.5000        10
  21.5250         8
  21.5500         1
  21.5750         2
  21.6000         8
  21.6250         5
  21.6500         9
  21.6750         4
  21.7000         2
  21.7250         5
  21.7500         2
  21.7750         4
  21.8000         5
  21.8250         4
  21.8500         3
  21.8750         3
  21.9000         4
  21.9250         3
  21.9500         2
  21.9750         7
  22.0000         5
  22.0250         5
  22.0500         8
  22.0750         3
  22.1000         5
  22.1250         9
  22.1500         7
  22.1750         4
  22.2000         6
  22.2250         9
  22.2500         5
  22.2750         8
  22.3000         3
  22.3250         3
  22.3500         3
  22.3750         3
  22.4000         2
  22.4250         8
  22.4500         3
  22.4750        10
  22.5000         8
  22.5250         6
  22.5500         2
  22.5750         6
  22.6000         4
  22.6250         2
  22.6500         3
  22.6750         3
  22.7000         7
  22.7250         4
  22.7500         8
  22.7750         8
  22.8000         5
  22.8250         6
  22.8500         3
  22.8750         3
  22.9000         5
  22.9250        10
  22.9500         4
  22.9750         8
  23.0000         4
  23.0250         3
  23.0500         6
  23.0750         9
  23.1000         7
  23.1250         6
  23.1500         4
  23.1750         6
  23.2000         8
  23.2250         6
  23.2500         5
  23.2750         7
  23.3000         1
  23.3250         5
  23.3500         4
  23.3750         6
  23.4000         7
  23.4250         8
  23.4500         6
  23.4750         5
  23.5000         5
  23.5250         5
  23.5500         9
  23.5750         6
  23.6000         7
  23.6250         3
  23.6500         6
  23.6750         4
  23.7000         3
  23.7250         4
  23.7500         2
  23.7750         3
  23.8000         4
  23.8250         4
  23.8500         3
  23.8750         6
  23.9000        10
  23.9250         4
  23.9500         8
  23.9750         6
  24.0000         3
  24.0250         4
  24.0500         7
  24.0750         3
  24.1000         3
  24.1250         3
  24.1500         1
  24.1750         3
  24.2000         3
  24.2250         2
  24.2500         7
  24.2750         9
  24.3000         5
  24.3250         7
  24.3500         4
  24.3750         6
  24.4000         4
  24.4250         5
  24.4500         5
  24.4750         3
  24.5000         4
  24.5250         6
  24.5500         9
  24.5750         4
  24.6000         5
  24.6250         3
  24.6500        11
  24.6750         4
  24.7000         6
  24.7250         3
  24.7500         5
  24.7750         5
  24.8000         5
  24.8250         5
  24.8500         6
  24.8750         5
  24.9000         7
  24.9250         4
  24.9500         8
  24.9750         5
  25.0000        11
  25.0250         8
  25.0500         6
  25.0750         4
  25.1000         6
  25.1250         9
  25.1500         5
  25.1750         6
  25.2000         8
  25.2250         1
  25.2500         2
  25.2750         3
  25.3000         6
  25.3250         4
  25.3500         6
  25.3750         4
  25.4000         9
  25.4250         9
  25.4500         6
  25.4750         7
  25.5000         9
  25.5250         8
  25.5500         7
  25.5750        11
  25.6000         6
  25.6250         4
  25.6500         8
  25.6750        13
  25.7000         6
  25.7250         3
  25.7500         6
  25.7750         5
  25.8000         4
  25.8250         8
  25.8500         6
  25.8750         4
  25.9000         7
  25.9250         3
  25.9500         7
  25.9750         4
  26.0000         8
  26.0250         3
  26.0500         4
  26.0750         4
  26.1000         5
  26.1250         5
  26.1500         6
  26.1750        10
  26.2000         8
  26.2250         5
  26.2500         3
  26.2750         3
  26.3000         5
  26.3250         1
  26.3500         8
  26.3750         6
  26.4000         5
  26.4250         7
  26.4500         3
  26.4750         5
  26.5000         4
  26.5250         7
  26.5500        10
  26.5750         7
  26.6000         3
  26.6250         2
  26.6500         9
  26.6750        12
  26.7000         7
  26.7250         3
  26.7500         5
  26.7750         6
  26.8000         4
  26.8250         4
  26.8500         8
  26.8750         6
  26.9000         7
  26.9250         7
  26.9500         7
  26.9750         5
  27.0000         4
  27.0250         9
  27.0500        10
  27.0750         6
  27.1000        10
  27.1250         7
  27.1500         8
  27.1750         6
  27.2000         6
  27.2250         7
  27.2500         6
  27.2750         7
  27.3000         6
  27.3250         9
  27.3500         9
  27.3750        10
  27.4000         3
  27.4250         5
  27.4500         6
  27.4750         6
  27.5000         8
  27.5250         6
  27.5500        10
  27.5750         7
  27.6000         3
  27.6250         4
  27.6500         6
  27.6750        12
  27.7000         7
  27.7250         7
  27.7500         8
  27.7750         6
  27.8000        13
  27.8250         9
  27.8500         7
  27.8750         8
  27.9000         7
  27.9250         6
  27.9500         8
  27.9750        10
  28.0000        12
  28.0250         8
  28.0500         7
  28.0750         8
  28.1000         8
  28.1250         4
  28.1500        10
  28.1750        11
  28.2000         5
  28.2250         6
  28.2500         9
  28.2750        12
  28.3000        12
  28.3250         6
  28.3500        11
  28.3750        10
  28.4000         7
  28.4250         5
  28.4500         7
  28.4750         5
  28.5000        10
  28.5250         6
  28.5500         5
  28.5750        13
  28.6000         8
  28.6250         8
  28.6500         5
  28.6750         8
  28.7000         3
  28.7250         8
  28.7500         9
  28.7750        12
  28.8000         8
  28.8250         3
  28.8500         5
  28.8750         7
  28.9000         8
  28.9250         9
  28.9500         7
  28.9750         6
  29.0000         5
  29.0250        14
  29.0500         9
  29.0750         9
  29.1000         7
  29.1250         7
  29.1500         7
  29.1750         6
  29.2000         5
  29.2250         5
  29.2500        16
  29.2750        11
  29.3000         4
  29.3250         9
  29.3500         9
  29.3750         7
  29.4000        13
  29.4250         5
  29.4500         2
  29.4750         9
  29.5000         6
  29.5250        11
  29.5500        12
  29.5750        12
  29.6000         8
  29.6250         7
  29.6500         7
  29.6750         7
  29.7000        15
  29.7250         3
  29.7500         7
  29.7750         6
  29.8000        15
  29.8250         6
  29.8500        12
  29.8750         8
  29.9000         5
  29.9250         8
  29.9500         8
  29.9750        12
  30.0000         5
  30.0250         9
  30.0500         6
  30.0750        14
  30.1000         6
  30.1250         8
  30.1500         9
  30.1750        11
  30.2000        11
  30.2250         9
  30.2500        11
  30.2750        19
  30.3000         9
  30.3250        11
  30.3500        15
  30.3750         6
  30.4000        14
  30.4250        17
  30.4500        15
  30.4750        13
  30.5000        12
  30.5250        23
  30.5500        20
  30.5750        16
  30.6000        33
  30.6250        29
  30.6500        41
  30.6750        69
  30.7000        75
  30.7250        90
  30.7500        81
  30.7750       105
  30.8000       104
  30.8250        84
  30.8500        67
  30.8750        52
  30.9000        50
  30.9250        51
  30.9500        13
  30.9750        16
  31.0000        27
  31.0250        38
  31.0500        26
  31.0750        30
  31.1000        31
  31.1250        37
  31.1500        60
  31.1750        76
  31.2000       104
  31.2250       135
  31.2500       218
  31.2750       315
  31.3000       433
  31.3250       630
  31.3500       918
  31.3750      1118
  31.4000      1189
  31.4250      1061
  31.4500      1056
  31.4750       944
  31.5000       662
  31.5250       434
  31.5500       307
  31.5750       175
  31.6000        98
  31.6250        64
  31.6500        43
  31.6750        45
  31.7000        34
  31.7250        33
  31.7500        27
  31.7750        27
  31.8000        26
  31.8250        28
  31.8500        22
  31.8750        20
  31.9000        24
  31.9250        29
  31.9500        42
  31.9750        40
  32.0000        74
  32.0250        87
  32.0500       145
  32.0750       217
  32.1000       239
  32.1250       242
  32.1500       265
  32.1750       238
  32.2000       157
  32.2250       118
  32.2500        76
  32.2750        49
  32.3000        41
  32.3250        18
  32.3500        16
  32.3750        19
  32.4000        11
  32.4250        17
  32.4500         7
  32.4750        18
  32.5000        11
  32.5250        21
  32.5500        13
  32.5750        12
  32.6000        12
  32.6250         7
  32.6500         6
  32.6750        12
  32.7000        14
  32.7250        13
  32.7500        11
  32.7750         6
  32.8000        12
  32.8250         9
  32.8500        12
  32.8750        17
  32.9000         4
  32.9250         8
  32.9500        10
  32.9750         9
  33.0000         6
  33.0250         7
  33.0500        10
  33.0750         5
  33.1000        11
  33.1250         8
  33.1500         6
  33.1750         2
  33.2000         6
  33.2250         5
  33.2500        13
  33.2750         7
  33.3000        11
  33.3250        10
  33.3500         5
  33.3750         6
  33.4000         8
  33.4250         7
  33.4500         6
  33.4750        10
  33.5000         8
  33.5250        14
  33.5500         7
  33.5750         7
  33.6000         2
  33.6250        14
  33.6500         8
  33.6750         6
  33.7000         9
  33.7250         6
  33.7500         9
  33.7750         2
  33.8000         5
  33.8250         7
  33.8500        11
  33.8750        10
  33.9000         7
  33.9250         6
  33.9500        12
  33.9750        10
  34.0000         4
  34.0250         8
  34.0500        10
  34.0750         8
  34.1000         8
  34.1250         4
  34.1500        11
  34.1750         4
  34.2000         7
  34.2250        10
  34.2500         9
  34.2750         4
  34.3000         2
  34.3250        12
  34.3500        16
  34.3750        11
  34.4000         8
  34.4250         7
  34.4500         7
  34.4750         6
  34.5000         7
  34.5250         7
  34.5500        13
  34.5750         8
  34.6000         3
  34.6250         5
  34.6500        11
  34.6750         4
  34.7000         7
  34.7250         8
  34.7500        13
  34.7750         5
  34.8000        10
  34.8250         7
  34.8500         5
  34.8750        10
  34.9000         9
  34.9250         9
  34.9500         4
  34.9750         8
  35.0000         6
  35.0250         5
  35.0500         8
  35.0750         5
  35.1000         6
  35.1250         9
  35.1500        10
  35.1750        10
  35.2000        13
  35.2250         9
  35.2500        12
  35.2750         7
  35.3000         7
  35.3250         6
  35.3500        13
  35.3750         5
  35.4000        12
  35.4250        13
  35.4500         6
  35.4750        13
  35.5000         9
  35.5250        10
  35.5500        13
  35.5750        11
  35.6000        11
  35.6250         6
  35.6500        17
  35.6750         9
  35.7000        15
  35.7250        13
  35.7500        13
  35.7750         8
  35.8000        11
  35.8250        11
  35.8500        16
  35.8750        14
  35.9000        17
  35.9250        17
  35.9500        19
  35.9750        13
  36.0000         8
  36.0250        19
  36.0500        16
  36.0750        24
  36.1000        37
  36.1250        29
  36.1500        39
  36.1750        63
  36.2000        88
  36.2250        99
  36.2500       134
  36.2750       163
  36.3000       204
  36.3250       328
  36.3500       443
  36.3750       536
  36.4000       555
  36.4250       508
  36.4500       454
  36.4750       417
  36.5000       309
  36.5250       263
  36.5500       158
  36.5750       106
  36.6000        75
  36.6250        51
  36.6500        41
  36.6750        34
  36.7000        31
  36.7250        20
  36.7500        18
  36.7750        17
  36.8000         9
  36.8250        13
  36.8500        11
  36.8750        13
  36.9000         7
  36.9250         7
  36.9500        10
  36.9750        16
  37.0000        15
  37.0250         9
  37.0500         6
  37.0750         5
  37.1000        10
  37.1250        14
  37.1500         6
  37.1750         8
  37.2000         9
  37.2250        12
  37.2500        12
  37.2750         8
  37.3000        11
  37.3250         6
  37.3500         7
  37.3750         8
  37.4000         4
  37.4250         8
  37.4500         7
  37.4750         6
  37.5000         5
  37.5250         6
  37.5500         6
  37.5750         6
  37.6000         7
  37.6250         8
  37.6500        15
  37.6750         4
  37.7000         7
  37.7250         8
  37.7500         7
  37.7750         8
  37.8000         6
  37.8250         7
  37.8500         4
  37.8750         6
  37.9000         1
  37.9250         6
  37.9500         7
  37.9750         6
  38.0000         7
  38.0250         3
  38.0500         1
  38.0750         1
  38.1000         6
  38.1250        10
  38.1500         4
  38.1750        10
  38.2000        11
  38.2250         3
  38.2500         4
  38.2750         6
  38.3000        11
  38.3250         3
  38.3500         5
  38.3750         7
  38.4000         6
  38.4250         3
  38.4500         5
  38.4750         6
  38.5000         8
  38.5250         4
  38.5500        11
  38.5750         4
  38.6000         6
  38.6250         2
  38.6500         7
  38.6750         8
  38.7000         4
  38.7250         3
  38.7500         8
  38.7750         5
  38.8000         5
  38.8250         6
  38.8500         5
  38.8750         3
  38.9000         5
  38.9250         6
  38.9500         4
  38.9750         0
  39.0000         7
  39.0250        12
  39.0500         9
  39.0750         5
  39.1000         5
  39.1250         3
  39.1500         5
  39.1750         6
  39.2000         2
  39.2250         6
  39.2500         3
  39.2750         6
  39.3000         6
  39.3250         6
  39.3500         3
  39.3750         6
  39.4000         4
  39.4250         7
  39.4500         6
  39.4750         5
  39.5000         8
  39.5250         5
  39.5500         7
  39.5750         2
  39.6000         3
  39.6250         7
  39.6500         7
  39.6750         6
  39.7000        10
  39.7250         5
  39.7500         5
  39.7750         9
  39.8000         8
  39.8250         5
  39.8500         5
  39.8750         6
  39.9000         9
  39.9250         6
  39.9500         3
  39.9750         5
  40.0000         3
  40.0250         7
  40.0500         4
  40.0750         5
  40.1000         5
  40.1250        10
  40.1500         6
  40.1750        12
  40.2000         5
  40.2250         7
  40.2500         8
  40.2750         3
  40.3000         8
  40.3250         5
  40.3500         3
  40.3750         3
  40.4000         9
  40.4250         3
  40.4500         9
  40.4750         4
  40.5000         6
  40.5250         5
  40.5500         7
  40.5750         1
  40.6000         7
  40.6250         5
  40.6500         1
  40.6750         6
  40.7000        15
  40.7250         6
  40.7500         5
  40.7750         3
  40.8000         5
  40.8250         7
  40.8500         6
  40.8750        10
  40.9000         8
  40.9250         5
  40.9500         6
  40.9750         3
  41.0000         4
  41.0250        10
  41.0500         5
  41.0750         7
  41.1000         7
  41.1250         1
  41.1500         3
  41.1750         3
  41.2000         4
  41.2250         2
  41.2500         7
  41.2750         1
  41.3000         8
  41.3250         4
  41.3500         5
  41.3750         3
  41.4000         2
  41.4250         4
  41.4500         6
  41.4750         9
  41.5000         3
  41.5250         6
  41.5500         8
  41.5750         5
  41.6000         7
  41.6250         6
  41.6500         5
  41.6750         3
  41.7000         5
  41.7250         4
  41.7500         5
  41.7750        12
  41.8000         7
  41.8250         4
  41.8500         6
  41.8750         8
  41.9000        11
  41.9250         8
  41.9500         8
  41.9750         4
  42.0000         5
  42.0250         7
  42.0500         2
  42.0750         7
  42.1000         6
  42.1250         4
  42.1500         7
  42.1750        10
  42.2000         6
  42.2250         4
  42.2500         5
  42.2750         5
  42.3000         9
  42.3250         4
  42.3500         5
  42.3750         2
  42.4000         7
  42.4250         4
  42.4500         5
  42.4750         5
  42.5000         7
  42.5250         3
  42.5500         4
  42.5750        10
  42.6000         7
  42.6250         9
  42.6500         7
  42.6750         3
  42.7000         5
  42.7250         6
  42.7500         3
  42.7750         5
  42.8000         6
  42.8250         4
  42.8500         8
  42.8750         3
  42.9000         8
  42.9250         6
  42.9500         6
  42.9750         6
  43.0000         4
  43.0250         6
  43.0500         4
  43.0750         7
  43.1000         5
  43.1250         5
  43.1500         5
  43.1750         8
  43.2000         6
  43.2250        12
  43.2500         4
  43.2750         9
  43.3000         7
  43.3250        11
  43.3500         6
  43.3750         6
  43.4000        19
  43.4250         7
  43.4500         7
  43.4750         4
  43.5000         6
  43.5250         4
  43.5500         5
  43.5750         2
  43.6000         7
  43.6250         2
  43.6500         4
  43.6750         7
  43.7000         4
  43.7250         4
  43.7500         4
  43.7750         3
  43.8000         8
  43.8250         9
  43.8500        11
  43.8750        14
  43.9000        20
  43.9250        33
  43.9500        40
  43.9750        35
  44.0000        38
  44.0250        38
  44.0500        30
  44.0750        20
  44.1000        19
  44.1250        22
  44.1500        12
  44.1750        11
  44.2000        12
  44.2250         4
  44.2500         7
  44.2750         8
  44.3000         7
  44.3250         7
  44.3500         4
  44.3750         7
  44.4000         3
  44.4250         3
  44.4500        11
  44.4750         9
  44.5000         6
  44.5250         4
  44.5500         6
  44.5750         7
  44.6000         6
  44.6250         6
  44.6500         8
  44.6750         6
  44.7000         3
  44.7250        15
  44.7500         7
  44.7750        13
  44.8000         7
  44.8250        11
  44.8500        20
  44.8750        21
  44.9000        49
  44.9250        83
  44.9500       114
  44.9750       168
  45.0000       145
  45.0250       132
  45.0500       126
  45.0750       126
  45.1000       117
  45.1250        87
  45.1500        52
  45.1750        52
  45.2000        26
  45.2250        20
  45.2500        11
  45.2750         4
  45.3000         8
  45.3250        10
  45.3500         9
  45.3750         8
  45.4000        10
  45.4250         3
  45.4500         4
  45.4750         5
  45.5000         4
  45.5250         3
  45.5500         7
  45.5750         7
  45.6000         6
  45.6250         4
  45.6500         5
  45.6750         7
  45.7000         7
  45.7250         3
  45.7500         4
  45.7750         3
  45.8000         9
  45.8250         4
  45.8500         6
  45.8750         3
  45.9000         6
  45.9250         2
  45.9500         4
  45.9750         4
  46.0000         3
  46.0250         5
  46.0500         3
  46.0750         3
  46.1000         4
  46.1250        11
  46.1500         7
  46.1750        11
  46.2000         4
  46.2250         7
  46.2500         6
  46.2750         2
  46.3000        10
  46.3250         3
  46.3500         5
  46.3750         2
  46.4000         3
  46.4250         5
  46.4500         6
  46.4750         3
  46.5000         4
  46.5250         8
  46.5500         4
  46.5750         6
  46.6000        10
  46.6250         4
  46.6500         5
  46.6750         9
  46.7000         8
  46.7250         9
  46.7500         7
  46.7750         4
  46.8000         6
  46.8250         6
  46.8500         1
  46.8750         8
  46.9000         3
  46.9250         5
  46.9500         7
  46.9750         5
  47.0000         3
  47.0250         9
  47.0500         6
  47.0750         2
  47.1000         5
  47.1250         5
  47.1500         4
  47.1750         4
  47.2000         4
  47.2250         3
  47.2500         7
  47.2750         8
  47.3000         4
  47.3250         1
  47.3500         3
  47.3750         5
  47.4000         3
  47.4250         4
  47.4500         1
  47.4750         6
  47.5000         5
  47.5250         5
  47.5500         3
  47.5750         8
  47.6000         1
  47.6250         4
  47.6500         3
  47.6750         4
  47.7000         3
  47.7250         7
  47.7500         3
  47.7750         8
  47.8000         5
  47.8250         7
  47.8500         2
  47.8750         4
  47.9000         4
  47.9250         6
  47.9500         2
  47.9750         5
  48.0000         2
  48.0250         4
  48.0500         5
  48.0750         4
  48.1000         3
  48.1250         9
  48.1500        10
  48.1750         5
  48.2000         6
  48.2250         6
  48.2500         6
  48.2750         5
  48.3000         1
  48.3250         2
  48.3500         6
  48.3750         6
  48.4000         4
  48.4250         7
  48.4500         5
  48.4750         2
  48.5000         2
  48.5250         3
  48.5500         5
  48.5750         7
  48.6000         2
  48.6250         5
  48.6500         6
  48.6750         5
  48.7000         7
  48.7250        10
  48.7500         3
  48.7750         4
  48.8000         4
  48.8250         2
  48.8500         6
  48.8750         3
  48.9000         9
  48.9250         4
  48.9500         3
  48.9750         6
  49.0000         7
  49.0250         5
  49.0500         3
  49.0750         2
  49.1000         7
  49.1250         6
  49.1500         5
  49.1750         3
  49.2000         7
  49.2250         4
  49.2500         4
  49.2750         6
  49.3000         5
  49.3250         3
  49.3500         4
  49.3750         5
  49.4000         4
  49.4250         7
  49.4500         2
  49.4750         2
  49.5000         5
  49.5250         5
  49.5500         3
  49.5750         8
  49.6000         3
  49.6250         2
  49.6500         4
  49.6750         4
  49.7000         3
  49.7250         4
  49.7500         5
  49.7750         9
  49.8000         4
  49.8250         5
  49.8500         5
  49.8750         3
  49.9000         4
  49.9250         6
  49.9500         7
  49.9750         2
  50.0000         2
  50.0250         5
  50.0500         2
  50.0750         8
  50.1000         6
  50.1250         6
  50.1500         4
  50.1750         4
  50.2000         6
  50.2250         2
  50.2500         9
  50.2750         3
  50.3000         8
  50.3250         4
  50.3500         6
  50.3750         8
  50.4000         5
  50.4250         9
  50.4500         3
  50.4750         2
  50.5000         9
  50.5250         7
  50.5500        10
  50.5750         3
  50.6000         7
  50.6250         6
  50.6500         4
  50.6750         6
  50.7000         4
  50.7250         4
  50.7500         7
  50.7750         5
  50.8000         7
  50.8250         4
  50.8500        12
  50.8750         3
  50.9000         8
  50.9250         7
  50.9500         4
  50.9750        13
  51.0000         6
  51.0250         7
  51.0500        13
  51.0750         7
  51.1000         5
  51.1250         7
  51.1500         8
  51.1750         2
  51.2000         6
  51.2250         8
  51.2500         7
  51.2750         4
  51.3000         6
  51.3250        11
  51.3500         7
  51.3750         6
  51.4000         9
  51.4250         6
  51.4500         3
  51.4750         3
  51.5000         3
  51.5250         8
  51.5500         8
  51.5750         5
  51.6000         1
  51.6250         5
  51.6500         9
  51.6750         9
  51.7000        10
  51.7250         7
  51.7500        11
  51.7750         8
  51.8000         1
  51.8250        15
  51.8500         9
  51.8750        11
  51.9000         5
  51.9250        12
  51.9500        14
  51.9750         8
  52.0000        10
  52.0250         9
  52.0500        13
  52.0750        25
  52.1000        15
  52.1250        16
  52.1500        22
  52.1750        27
  52.2000        27
  52.2250        52
  52.2500        55
  52.2750        97
  52.3000       134
  52.3250       186
  52.3500       219
  52.3750       231
  52.4000       201
  52.4250       173
  52.4500       145
  52.4750       155
  52.5000       126
  52.5250       114
  52.5500        88
  52.5750        66
  52.6000        43
  52.6250        42
  52.6500        28
  52.6750        16
  52.7000         6
  52.7250         9
  52.7500         9
  52.7750        10
  52.8000         6
  52.8250        13
  52.8500        14
  52.8750         5
  52.9000        12
  52.9250         7
  52.9500         7
  52.9750         4
  53.0000        13
  53.0250         5
  53.0500         3
  53.0750         6
  53.1000        10
  53.1250         6
  53.1500         8
  53.1750         7
  53.2000         9
  53.2250         6
  53.2500         6
  53.2750         6
  53.3000         5
  53.3250         9
  53.3500         9
  53.3750        11
  53.4000        13
  53.4250        12
  53.4500         6
  53.4750         8
  53.5000         8
  53.5250         8
  53.5500         3
  53.5750        11
  53.6000         8
  53.6250         9
  53.6500         7
  53.6750         2
  53.7000        12
  53.7250         7
  53.7500         4
  53.7750         6
  53.8000         7
  53.8250         8
  53.8500         8
  53.8750        10
  53.9000         4
  53.9250         3
  53.9500        10
  53.9750        11
  54.0000         4
  54.0250        10
  54.0500         5
  54.0750        11
  54.1000         5
  54.1250         2
  54.1500         3
  54.1750         9
  54.2000         8
  54.2250        10
  54.2500         6
  54.2750         7
  54.3000        16
  54.3250         5
  54.3500         4
  54.3750         4
  54.4000         7
  54.4250         7
  54.4500         6
  54.4750         8
  54.5000         5
  54.5250         5
  54.5500         5
  54.5750         7
  54.6000         6
  54.6250         6
  54.6500         5
  54.6750         9
  54.7000         5
  54.7250         5
  54.7500         7
  54.7750         2
  54.8000         6
  54.8250        11
  54.8500         6
  54.8750         4
  54.9000         3
  54.9250         8
  54.9500         8
  54.9750         3
  55.0000         5
  55.0250         5
  55.0500         4
  55.0750         9
  55.1000         5
  55.1250         5
  55.1500        10
  55.1750         7
  55.2000         9
  55.2250         5
  55.2500        14
  55.2750         2
  55.3000         6
  55.3250         5
  55.3500        24
  55.3750        24
  55.4000        63
  55.4250        73
  55.4500        51
  55.4750        32
  55.5000        23
  55.5250        28
  55.5500        37
  55.5750        34
  55.6000        22
  55.6250        20
  55.6500        11
  55.6750         7
  55.7000        14
  55.7250         8
  55.7500         6
  55.7750         5
  55.8000         4
  55.8250         7
  55.8500         5
  55.8750         3
  55.9000         7
  55.9250         8
  55.9500         5
  55.9750         8
  56.0000        10
  56.0250         8
  56.0500         6
  56.0750         6
  56.1000         6
  56.1250         3
  56.1500         7
  56.1750        11
  56.2000         5
  56.2250         7
  56.2500         6
  56.2750         2
  56.3000         7
  56.3250         6
  56.3500         6
  56.3750         5
  56.4000         9
  56.4250         7
  56.4500         6
  56.4750         3
  56.5000        13
  56.5250         7
  56.5500         6
  56.5750         9
  56.6000         7
  56.6250         8
  56.6500         5
  56.6750         6
  56.7000         1
  56.7250         2
  56.7500         8
  56.7750         5
  56.8000         6
  56.8250         2
  56.8500        13
  56.8750        11
  56.9000         7
  56.9250         9
  56.9500         8
  56.9750         7
  57.0000         5
  57.0250         2
  57.0500         6
  57.0750         6
  57.1000         8
  57.1250         7
  57.1500         7
  57.1750        13
  57.2000         3
  57.2250         7
  57.2500        10
  57.2750         9
  57.3000         4
  57.3250         6
  57.3500        10
  57.3750         7
  57.4000         6
  57.4250         7
  57.4500         7
  57.4750         7
  57.5000         2
  57.5250         7
  57.5500         4
  57.5750         7
  57.6000        10
  57.6250        16
  57.6500         8
  57.6750         9
  57.7000         7
  57.7250         6
  57.7500         3
  57.7750         7
  57.8000         6
  57.8250         9
  57.8500         9
  57.8750         8
  57.9000         9
  57.9250         5
  57.9500         7
  57.9750         5
  58.0000         7
  58.0250         8
  58.0500         4
  58.0750         4
  58.1000         5
  58.1250         8
  58.1500         7
  58.1750         5
  58.2000         8
  58.2250         5
  58.2500         7
  58.2750         8
  58.3000         8
  58.3250         8
  58.3500         6
  58.3750         7
  58.4000         5
  58.4250        10
  58.4500         7
  58.4750         8
  58.5000         4
  58.5250         5
  58.5500         8
  58.5750         7
  58.6000         5
  58.6250         9
  58.6500         7
  58.6750        11
  58.7000         6
  58.7250         6
  58.7500         6
  58.7750         9
  58.8000        10
  58.8250         7
  58.8500         5
  58.8750         5
  58.9000         7
  58.9250         9
  58.9500        11
  58.9750         5
  59.0000         4
  59.0250         8
  59.0500         7
  59.0750         6
  59.1000         2
  59.1250         1
  59.1500        10
  59.1750         7
  59.2000         4
  59.2250         4
  59.2500         2
  59.2750         9
  59.3000         5
  59.3250         4
  59.3500         2
  59.3750         9
  59.4000         7
  59.4250         4
  59.4500         9
  59.4750         4
  59.5000         6
  59.5250         5
  59.5500         4
  59.5750        10
  59.6000         6
  59.6250         7
  59.6500        12
  59.6750         3
  59.7000         4
  59.7250         6
  59.7500         3
  59.7750         4
  59.8000         5
  59.8250         5
  59.8500         9
  59.8750         8
  59.9000        13
  59.9250         5
  59.9500         9
  59.9750         8
  60.0000         4
  60.0250         7
  60.0500        12
  60.0750         7
  60.1000         8
  60.1250         9
  60.1500         7
  60.1750         6
  60.2000         8
  60.2250         7
  60.2500        10
  60.2750        10
  60.3000        10
  60.3250         8
  60.3500        11
  60.3750         7
  60.4000         6
  60.4250         9
  60.4500         8
  60.4750         8
  60.5000         6
  60.5250         7
  60.5500         2
  60.5750        13
  60.6000         7
  60.6250         8
  60.6500         8
  60.6750         5
  60.7000         8
  60.7250         8
  60.7500         7
  60.7750         8
  60.8000         6
  60.8250         8
  60.8500         6
  60.8750        11
  60.9000         9
  60.9250         5
  60.9500         6
  60.9750         6
  61.0000         9
  61.0250         4
  61.0500         9
  61.0750         9
  61.1000         7
  61.1250        11
  61.1500         5
  61.1750        10
  61.2000        18
  61.2250        15
  61.2500         6
  61.2750        12
  61.3000         5
  61.3250         7
  61.3500         8
  61.3750        10
  61.4000         5
  61.4250        10
  61.4500         7
  61.4750        12
  61.5000        12
  61.5250         5
  61.5500         6
  61.5750         8
  61.6000        15
  61.6250         6
  61.6500         8
  61.6750        11
  61.7000        12
  61.7250        11
  61.7500         7
  61.7750        11
  61.8000         7
  61.8250         9
  61.8500        17
  61.8750        15
  61.9000         9
  61.9250        15
  61.9500        21
  61.9750        19
  62.0000        16
  62.0250        30
  62.0500        33
  62.0750        21
  62.1000        39
  62.1250        39
  62.1500        48
  62.1750        79
  62.2000       117
  62.2250       166
  62.2500       208
  62.2750       245
  62.3000       234
  62.3250       230
  62.3500       196
  62.3750       172
  62.4000       151
  62.4250       166
  62.4500       136
  62.4750       143
  62.5000       108
  62.5250       105
  62.5500        79
  62.5750        88
  62.6000        70
  62.6250        68
  62.6500        71
  62.6750        50
  62.7000        44
  62.7250        28
  62.7500        30
  62.7750        42
  62.8000        32
  62.8250        29
  62.8500        32
  62.8750        18
  62.9000        16
  62.9250        15
  62.9500        17
  62.9750        10
  63.0000        13
  63.0250        12
  63.0500        12
  63.0750        11
  63.1000         7
  63.1250        12
  63.1500        13
  63.1750         9
  63.2000         5
  63.2250        11
  63.2500         6
  63.2750         9
  63.3000        14
  63.3250         8
  63.3500        12
  63.3750         6
  63.4000         8
  63.4250        11
  63.4500        11
  63.4750         5
  63.5000        11
  63.5250         7
  63.5500         6
  63.5750        11
  63.6000        14
  63.6250         9
  63.6500        12
  63.6750         9
  63.7000         7
  63.7250         4
  63.7500         6
  63.7750         8
  63.8000        11
  63.8250        11
  63.8500         6
  63.8750        19
  63.9000        16
  63.9250         8
  63.9500         6
  63.9750        13
  64.0000         9
  64.0250        13
  64.0500        11
  64.0750        13
  64.1000         9
  64.1250        10
  64.1500        11
  64.1750         8
  64.2000         5
  64.2250         7
  64.2500         8
  64.2750        10
  64.3000         9
  64.3250         5
  64.3500        11
  64.3750        11
  64.4000        17
  64.4250         5
  64.4500         6
  64.4750         8
  64.5000        16
  64.5250         6
  64.5500         5
  64.5750        15
  64.6000        11
  64.6250        26
  64.6500        42
  64.6750        29
  64.7000        26
  64.7250        22
  64.7500        17
  64.7750        22
  64.8000        20
  64.8250        27
  64.8500        23
  64.8750        27
  64.9000        29
  64.9250        26
  64.9500        12
  64.9750         6
  65.0000        12
  65.0250         9
  65.0500         8
  65.0750        10
  65.1000         7
  65.1250        12
  65.1500        10
  65.1750        13
  65.2000        13
  65.2250         8
  65.2500        13
  65.2750        29
  65.3000        38
  65.3250        42
  65.3500        57
  65.3750        93
  65.4000        84
  65.4250        78
  65.4500        59
  65.4750        50
  65.5000        41
  65.5250        52
  65.5500        43
  65.5750        52
  65.6000        33
  65.6250        27
  65.6500        28
  65.6750        21
  65.7000        11
  65.7250         6
  65.7500         6
  65.7750         9
  65.8000         7
  65.8250         7
  65.8500        10
  65.8750         9
  65.9000         6
  65.9250        10
  65.9500         4
  65.9750        12
  66.0000        14
  66.0250        10
  66.0500         5
  66.0750         1
  66.1000        10
  66.1250         8
  66.1500         4
  66.1750         5
  66.2000         5
  66.2250         8
  66.2500         7
  66.2750         6
  66.3000         1
  66.3250         8
  66.3500         7
  66.3750        13
  66.4000         8
  66.4250         2
  66.4500         9
  66.4750         7
  66.5000         6
  66.5250         7
  66.5500         6
  66.5750         7
  66.6000         7
  66.6250         8
  66.6500         6
  66.6750        13
  66.7000         7
  66.7250         8
  66.7500         8
  66.7750         5
  66.8000         4
  66.8250         8
  66.8500         9
  66.8750         5
  66.9000         2
  66.9250         6
  66.9500         4
  66.9750         8
  67.0000         7
  67.0250         5
  67.0500         7
  67.0750         9
  67.1000         5
  67.1250         6
  67.1500         8
  67.1750         3
  67.2000         5
  67.2250         6
  67.2500         4
  67.2750         8
  67.3000         6
  67.3250        10
  67.3500         7
  67.3750         5
  67.4000         7
  67.4250         6
  67.4500         5
  67.4750         6
  67.5000         4
  67.5250         7
  67.5500         7
  67.5750         8
  67.6000         6
  67.6250        11
  67.6500         8
  67.6750         4
  67.7000         7
  67.7250         6
  67.7500         7
  67.7750         4
  67.8000         8
  67.8250         5
  67.8500         5
  67.8750         4
  67.9000         4
  67.9250         5
  67.9500         6
  67.9750         5
  68.0000         8
  68.0250         7
  68.0500         9
  68.0750         3
  68.1000         3
  68.1250         9
  68.1500         7
  68.1750         7
  68.2000         2
  68.2250         8
  68.2500         7
  68.2750         4
  68.3000         5
  68.3250         4
  68.3500         8
  68.3750        11
  68.4000         4
  68.4250         4
  68.4500         5
  68.4750         2
  68.5000         5
  68.5250         4
  68.5500         5
  68.5750         4
  68.6000         8
  68.6250         3
  68.6500         6
  68.6750         9
  68.7000         3
  68.7250         2
  68.7500         9
  68.7750         5
  68.8000         5
  68.8250         4
  68.8500         7
  68.8750         9
  68.9000         3
  68.9250         6
  68.9500         1
  68.9750         5
  69.0000         5
  69.0250         7
  69.0500         7
  69.0750         0
  69.1000        10
  69.1250         3
  69.1500        10
  69.1750         7
  69.2000         3
  69.2250         4
  69.2500         5
  69.2750         3
  69.3000         8
  69.3250         3
  69.3500         8
  69.3750         8
  69.4000         5
  69.4250         7
  69.4500         2
  69.4750         3
  69.5000         6
  69.5250         4
  69.5500         8
  69.5750         2
  69.6000         6
  69.6250         7
  69.6500         5
  69.6750         0
  69.7000         2
  69.7250         6
  69.7500        11
  69.7750         2
  69.8000         4
  69.8250         7
  69.8500         4
  69.8750         4
  69.9000         4
  69.9250         6
  69.9500         7
  69.9750         4
  70.0000         8
  70.0250         4
  70.0500         9
  70.0750         5
  70.1000         1
  70.1250         1
  70.1500         4
  70.1750         4
  70.2000         5
  70.2250         1
  70.2500         6
  70.2750         7
  70.3000         6
  70.3250         8
  70.3500         2
  70.3750         6
  70.4000         3
  70.4250         8
  70.4500         6
  70.4750         4
  70.5000        10
  70.5250         6
  70.5500         2
  70.5750         3
  70.6000         7
  70.6250         3
  70.6500         3
  70.6750         5
  70.7000         7
  70.7250         2
  70.7500         4
  70.7750         4
  70.8000         4
  70.8250         2
  70.8500         3
  70.8750         5
  70.9000         2
  70.9250         4
  70.9500         1
  70.9750         2
  71.0000         5
  71.0250         2
  71.0500         7
  71.0750         6
  71.1000         5
  71.1250         1
  71.1500         5
  71.1750         4
  71.2000         7
  71.2250        12
  71.2500         8
  71.2750         6
  71.3000         8
  71.3250         9
  71.3500         4
  71.3750         3
  71.4000         4
  71.4250         8
  71.4500         1
  71.4750         5
  71.5000         4
  71.5250         1
  71.5500         8
  71.5750         3
  71.6000         4
  71.6250         6
  71.6500         4
  71.6750         5
  71.7000         2
  71.7250         7
  71.7500         8
  71.7750         2
  71.8000         4
  71.8250         3
  71.8500         4
  71.8750         3
  71.9000         8
  71.9250         9
  71.9500         2
  71.9750         6
  72.0000         4
  72.0250         4
  72.0500         4
  72.0750         6
  72.1000         7
  72.1250         8
  72.1500         6
  72.1750         6
  72.2000         5
  72.2250         3
  72.2500        10
  72.2750         4
  72.3000         8
  72.3250         5
  72.3500         6
  72.3750         7
  72.4000         9
  72.4250        11
  72.4500        19
  72.4750        34
  72.5000        26
  72.5250        11
  72.5500        13
  72.5750        12
  72.6000         8
  72.6250        11
  72.6500         9
  72.6750        21
  72.7000        12
  72.7250        14
  72.7500        12
  72.7750        10
  72.8000         8
  72.8250         5
  72.8500        12
  72.8750         7
  72.9000         4
  72.9250         6
  72.9500         5
  72.9750         5
  73.0000         4
  73.0250         6
  73.0500         5
  73.0750         3
  73.1000         8
  73.1250        10
  73.1500         5
  73.1750         4
  73.2000        13
  73.2250        17
  73.2500        31
  73.2750        33
  73.3000        47
  73.3250        46
  73.3500        15
  73.3750        12
  73.4000        15
  73.4250         9
  73.4500        12
  73.4750        22
  73.5000        30
  73.5250        23
  73.5500        22
  73.5750         8
  73.6000         4
  73.6250         2
  73.6500         6
  73.6750         2
  73.7000         4
  73.7250        11
  73.7500         7
  73.7750         6
  73.8000         6
  73.8250         6
  73.8500         6
  73.8750         7
  73.9000         5
  73.9250         4
  73.9500         7
  73.9750         7
  74.0000         4
  74.0250         5
  74.0500         5
  74.0750         7
  74.1000         5
  74.1250         7
  74.1500         7
  74.1750         5
  74.2000         6
  74.2250         8
  74.2500         1
  74.2750         5
  74.3000         4
  74.3250         6
  74.3500         5
  74.3750         5
  74.4000         5
  74.4250         6
  74.4500         6
  74.4750         7
  74.5000         5
  74.5250         9
  74.5500         4
  74.5750         9
  74.6000         6
  74.6250         3
  74.6500         5
  74.6750         9
  74.7000         4
  74.7250         7
  74.7500         3
  74.7750         4
  74.8000         2
  74.8250         2
  74.8500         5
  74.8750         4
  74.9000         3
  74.9250         3
  74.9500         2
  74.9750         2
  75.0000         7
  75.0250         9
  75.0500         2
  75.0750         4
  75.1000         2
  75.1250         9
  75.1500         6
  75.1750         1
  75.2000         5
  75.2250         9
  75.2500         4
  75.2750         2
  75.3000         1
  75.3250         5
  75.3500         1
  75.3750         4
  75.4000         5
  75.4250         7
  75.4500         4
  75.4750         4
  75.5000         4
  75.5250         8
  75.5500         3
  75.5750         2
  75.6000         8
  75.6250         5
  75.6500         3
  75.6750         7
  75.7000         5
  75.7250         3
  75.7500         3
  75.7750         9
  75.8000         6
  75.8250         5
  75.8500         3
  75.8750         5
  75.9000         3
  75.9250         5
  75.9500         4
  75.9750         3
  76.0000         5
  76.0250         6
  76.0500         4
  76.0750         6
  76.1000         6
  76.1250         2
  76.1500         4
  76.1750         3
  76.2000         8
  76.2250         3
  76.2500         2
  76.2750         4
  76.3000         6
  76.3250         6
  76.3500        10
  76.3750         4
  76.4000         4
  76.4250         2
  76.4500         2
  76.4750         6
  76.5000         8
  76.5250         4
  76.5500         6
  76.5750         1
  76.6000         7
  76.6250         8
  76.6500         5
  76.6750         3
  76.7000         6
  76.7250         3
  76.7500         5
  76.7750         6
  76.8000         9
  76.8250         6
  76.8500         5
  76.8750        14
  76.9000         8
  76.9250         6
  76.9500         7
  76.9750        14
  77.0000         9
  77.0250        14
  77.0500        15
  77.0750        16
  77.1000        21
  77.1250        23
  77.1500        30
  77.1750        30
  77.2000        23
  77.2250        20
  77.2500        18
  77.2750        14
  77.3000        15
  77.3250        11
  77.3500        16
  77.3750        14
  77.4000        21
  77.4250        21
  77.4500        13
  77.4750        13
  77.5000        10
  77.5250        10
  77.5500         8
  77.5750         4
  77.6000         5
  77.6250         7
  77.6500         7
  77.6750         1
  77.7000         5
  77.7250         6
  77.7500         3
  77.7750         9
  77.8000         7
  77.8250         5
  77.8500         6
  77.8750         4
  77.9000         3
  77.9250         8
  77.9500         7
  77.9750         4
  78.0000         7
  78.0250         2
  78.0500         8
  78.0750         9
  78.1000         6
  78.1250         1
  78.1500         8
  78.1750         7
  78.2000         3
  78.2250         4
  78.2500         4
  78.2750         9
  78.3000         8
  78.3250         5
  78.3500         3
  78.3750         4
  78.4000         7
  78.4250         3
  78.4500         5
  78.4750         4
  78.5000         9
  78.5250         3
  78.5500        10
  78.5750         6
  78.6000         4
  78.6250         3
  78.6500         1
  78.6750        10
  78.7000         7
  78.7250         2
  78.7500         7
  78.7750         6
  78.8000         6
  78.8250         7
  78.8500         9
  78.8750         7
  78.9000         7
  78.9250         6
  78.9500         4
  78.9750         5
  79.0000         7
  79.0250         5
  79.0500         5
  79.0750         3
  79.1000         9
  79.1250         3
  79.1500         6
  79.1750         6
  79.2000         4
  79.2250         8
  79.2500        10
  79.2750         3
  79.3000         4
  79.3250         6
  79.3500         7
  79.3750         6
  79.4000         7
  79.4250         4
  79.4500         7
  79.4750         5
  79.5000        11
  79.5250        24
  79.5500        32
  79.5750        46
  79.6000        58
  79.6250        47
  79.6500        36
  79.6750        25
  79.7000         8
  79.7250        11
  79.7500         9
  79.7750        16
  79.8000        21
  79.8250        31
  79.8500        23
  79.8750        16
  79.9000        18
  79.9250        18
  79.9500         4
  79.9750         6
  80.0000         7
  80.0250         7
  80.0500         8
  80.0750         5
  80.1000         6
  80.1250         3
  80.1500         6
  80.1750         5
  80.2000         8
  80.2250         6
  80.2500         9
  80.2750         2
  80.3000         5
  80.3250         6
  80.3500         2
  80.3750         5
  80.4000         0
  80.4250        11
  80.4500         6
  80.4750         2
  80.5000         3
  80.5250         3
  80.5500         9
  80.5750        11
  80.6000         7
  80.6250         6
  80.6500         1
  80.6750         6
  80.7000         4
  80.7250         5
  80.7500         4
  80.7750         4
  80.8000         2
  80.8250         5
  80.8500         4
  80.8750         4
  80.9000         5
  80.9250         2
  80.9500         5
  80.9750         7
  81.0000         3
  81.0250         6
  81.0500         1
  81.0750         2
  81.1000         4
  81.1250         7
  81.1500         3
  81.1750         5
  81.2000         8
  81.2250         7
  81.2500         5
  81.2750         2
  81.3000        10
  81.3250         4
  81.3500         3
  81.3750         6
  81.4000         3
  81.4250         2
  81.4500         5
  81.4750         3
  81.5000        10
  81.5250         3
  81.5500         3
  81.5750         5
  81.6000         1
  81.6250        10
  81.6500         5
  81.6750         7
  81.7000         4
  81.7250         5
  81.7500         4
  81.7750         5
  81.8000         5
  81.8250         2
  81.8500         0
  81.8750        10
  81.9000         3
  81.9250         4
  81.9500         8
  81.9750         5
  82.0000         5
  82.0250         7
  82.0500         9
  82.0750         5
  82.1000         4
  82.1250         4
  82.1500         5
  82.1750         5
  82.2000         5
  82.2250         5
  82.2500         7
  82.2750         7
  82.3000         6
  82.3250         7
  82.3500         8
  82.3750         6
  82.4000         7
  82.4250         8
  82.4500         9
  82.4750         6
  82.5000         4
  82.5250         7
  82.5500         4
  82.5750         5
  82.6000         4
  82.6250         3
  82.6500         4
  82.6750         8
  82.7000         2
  82.7250         6
  82.7500         6
  82.7750         4
  82.8000         5
  82.8250         6
  82.8500         3
  82.8750         3
  82.9000         4
  82.9250         7
  82.9500         8
  82.9750         7
  83.0000         3
  83.0250         3
  83.0500         2
  83.0750         6
  83.1000         6
  83.1250         5
  83.1500         2
  83.1750         4
  83.2000         4
  83.2250         5
  83.2500         4
  83.2750         2
  83.3000         6
  83.3250         7
  83.3500         4
  83.3750         4
  83.4000         6
  83.4250        10
  83.4500         1
  83.4750         3
  83.5000         5
  83.5250         3
  83.5500         3
  83.5750         5
  83.6000         3
  83.6250         2
  83.6500         6
  83.6750         4
  83.7000        13
  83.7250         6
  83.7500         8
  83.7750         4
  83.8000         4
  83.8250         8
  83.8500         6
  83.8750         2
  83.9000         7
  83.9250         9
  83.9500         9
  83.9750         6
  84.0000         4
  84.0250         5
  84.0500         5
  84.0750         5
  84.1000         5
  84.1250         7
  84.1500         8
  84.1750         5
  84.2000         8
  84.2250         7
  84.2500         6
  84.2750         3
  84.3000         5
  84.3250         6
  84.3500         4
  84.3750         2
  84.4000         2
  84.4250         3
  84.4500         9
  84.4750        10
  84.5000        10
  84.5250         8
  84.5500         8
  84.5750         7
  84.6000         3
  84.6250        10
  84.6500         8
  84.6750         5
  84.7000         3
  84.7250         8
  84.7500         4
  84.7750         3
  84.8000         8
  84.8250         7
  84.8500         6
  84.8750         7
  84.9000        10
  84.9250         3
  84.9500         7
  84.9750        10
  85.0000         8
  85.0250         8
  85.0500        12
  85.0750         8
  85.1000         8
  85.1250         6
  85.1500        10
  85.1750         9
  85.2000         5
  85.2250         9
  85.2500         9
  85.2750         7
  85.3000         8
  85.3250        15
  85.3500         6
  85.3750        14
  85.4000        15
  85.4250        14
  85.4500        13
  85.4750        27
  85.5000        31
  85.5250        47
  85.5500        65
  85.5750        65
  85.6000        63
  85.6250        58
  85.6500        73
  85.6750        57
  85.7000        29
  85.7250        33
  85.7500        28
  85.7750        35
  85.8000        34
  85.8250        47
  85.8500        41
  85.8750        45
  85.9000        32
  85.9250        30
  85.9500        19
  85.9750        19
  86.0000        14
  86.0250         8
  86.0500        13
  86.0750        15
  86.1000         9
  86.1250        12
  86.1500        10
  86.1750         4
  86.2000         8
  86.2250         7
  86.2500        11
  86.2750         6
  86.3000         7
  86.3250         7
  86.3500         7
  86.3750         6
  86.4000         9
  86.4250        10
  86.4500         7
  86.4750        10
  86.5000        10
  86.5250         5
  86.5500         9
  86.5750         8
  86.6000         9
  86.6250        12
  86.6500         4
  86.6750         5
  86.7000         7
  86.7250         4
  86.7500         9
  86.7750         9
  86.8000         8
  86.8250         3
  86.8500         8
  86.8750         6
  86.9000         5
  86.9250         8
  86.9500         9
  86.9750        10
  87.0000         8
  87.0250         8
  87.0500         9
  87.0750         6
  87.1000         6
  87.1250         3
  87.1500         5
  87.1750         6
  87.2000         9
  87.2250         4
  87.2500         8
  87.2750        11
  87.3000         6
  87.3250         7
  87.3500         5
  87.3750         9
  87.4000         7
  87.4250         9
  87.4500        11
  87.4750         5
  87.5000         5
  87.5250         7
  87.5500         4
  87.5750         9
  87.6000        12
  87.6250         8
  87.6500         8
  87.6750        11
  87.7000         8
  87.7250         4
  87.7500         6
  87.7750         5
  87.8000         8
  87.8250         8
  87.8500         8
  87.8750         3
  87.9000        11
  87.9250         6
  87.9500         7
  87.9750         5
  88.0000        12
  88.0250        19
  88.0500        12
  88.0750        10
  88.1000         8
  88.1250        13
  88.1500         8
  88.1750        19
  88.2000        16
  88.2250        20
  88.2500        23
  88.2750        22
  88.3000        28
  88.3250        48
  88.3500        53
  88.3750        48
  88.4000        44
  88.4250        38
  88.4500        28
  88.4750        23
  88.5000        25
  88.5250        20
  88.5500        25
  88.5750        30
  88.6000        28
  88.6250        34
  88.6500        34
  88.6750        23
  88.7000        23
  88.7250        26
  88.7500        10
  88.7750        16
  88.8000        14
  88.8250        11
  88.8500        11
  88.8750        10
  88.9000        13
  88.9250         8
  88.9500        13
  88.9750         8
  89.0000         7
  89.0250         6
  89.0500         9
  89.0750         8
  89.1000         9
  89.1250         6
  89.1500         6
  89.1750         9
  89.2000         6
  89.2250         3
  89.2500         9
  89.2750         3
  89.3000         2
  89.3250         7
  89.3500        11
  89.3750        10
  89.4000         9
  89.4250        16
  89.4500        17
  89.4750        22
  89.5000        12
  89.5250        15
  89.5500        20
  89.5750        15
  89.6000         9
  89.6250        12
  89.6500         8
  89.6750         8
  89.7000         8
  89.7250        13
  89.7500        16
  89.7750        18
  89.8000        10
  89.8250        14
  89.8500        11
  89.8750         5
  89.9000        12
  89.9250         9
  89.9500        11
  89.9750         3
  90.0000         7
  90.0250         8
  90.0500         5
  90.0750         6
  90.1000         4
  90.1250        10
  90.1500         4
  90.1750         7
  90.2000        10
  90.2250         4
  90.2500         5
  90.2750         4
  90.3000         1
  90.3250         4
  90.3500        12
  90.3750         7
  90.4000         6
  90.4250         5
  90.4500         6
  90.4750         3
  90.5000         7
  90.5250         2
  90.5500         0
  90.5750         7
  90.6000         9
  90.6250         9
  90.6500         6
  90.6750         5
  90.7000         9
  90.7250         2
  90.7500         4
  90.7750         2
  90.8000         4
  90.8250         7
  90.8500        10
  90.8750         8
  90.9000         7
  90.9250         3
  90.9500         2
  90.9750         4
  91.0000         3
  91.0250        10
  91.0500         6
  91.0750         2
  91.1000         8
  91.1250         5
  91.1500         5
  91.1750         5
  91.2000         6
  91.2250        11
  91.2500         4
  91.2750         4
  91.3000         8
  91.3250         3
  91.3500         4
  91.3750         7
  91.4000         8
  91.4250         7
  91.4500         7
  91.4750         7
  91.5000         6
  91.5250         6
  91.5500         1
  91.5750         6
  91.6000         8
  91.6250         4
  91.6500         5
  91.6750         4
  91.7000         5
  91.7250         3
  91.7500         7
  91.7750         6
  91.8000         4
  91.8250        12
  91.8500         4
  91.8750         3
  91.9000         5
  91.9250         6
  91.9500         5
  91.9750         5
  92.0000         8
  92.0250         7
  92.0500         7
  92.0750         4
  92.1000         9
  92.1250        12
  92.1500         4
  92.1750         6
  92.2000        11
  92.2250         3
  92.2500         4
  92.2750         6
  92.3000         2
  92.3250         6
  92.3500         7
  92.3750         4
  92.4000         3
  92.4250         7
  92.4500         5
  92.4750         2
  92.5000         8
  92.5250        12
  92.5500         5
  92.5750         5
  92.6000         4
  92.6250         4
  92.6500         4
  92.6750         8
  92.7000        10
  92.7250         5
  92.7500         5
  92.7750         8
  92.8000         3
  92.8250         2
  92.8500         2
  92.8750         7
  92.9000         8
  92.9250         4
  92.9500         3
  92.9750         6
  93.0000         5
  93.0250         9
  93.0500         6
  93.0750         5
  93.1000        11
  93.1250         4
  93.1500         9
  93.1750         4
  93.2000         5
  93.2250         5
  93.2500         3
  93.2750         3
  93.3000         5
  93.3250         5
  93.3500         5
  93.3750         6
  93.4000         5
  93.4250         8
  93.4500        10
  93.4750         6
  93.5000         4
  93.5250         6
  93.5500         4
  93.5750         1
  93.6000         5
  93.6250         3
  93.6500         3
  93.6750         9
  93.7000         3
  93.7250         4
  93.7500         7
  93.7750         9
  93.8000         6
  93.8250         5
  93.8500        12
  93.8750         6
  93.9000         6
  93.9250         7
  93.9500        10
  93.9750         9
  94.0000         8
  94.0250         6
  94.0500         6
  94.0750         5
  94.1000         3
  94.1250         6
  94.1500         9
  94.1750         6
  94.2000         8
  94.2250         3
  94.2500         4
  94.2750         2
  94.3000         6
  94.3250         6
  94.3500        12
  94.3750         5
  94.4000         4
  94.4250         8
  94.4500         2
  94.4750         6
  94.5000         9
  94.5250         7
  94.5500         4
  94.5750         5
  94.6000         5
  94.6250         8
  94.6500         4
  94.6750         8
  94.7000         4
  94.7250         3
  94.7500         9
  94.7750         7
  94.8000         8
  94.8250         3
  94.8500         2
  94.8750         4
  94.9000         1
  94.9250         5
  94.9500         7
  94.9750         7
  95.0000         5
  95.0250         1
  95.0500         5
  95.0750         4
  95.1000         6
  95.1250        10
  95.1500         9
  95.1750         7
  95.2000         8
  95.2250        16
  95.2500        20
  95.2750        11
  95.3000        15
  95.3250         8
  95.3500        11
  95.3750         8
  95.4000        12
  95.4250         6
  95.4500         6
  95.4750         6
  95.5000        10
  95.5250         7
  95.5500         6
  95.5750        19
  95.6000        26
  95.6250        19
  95.6500        17
  95.6750        12
  95.7000        16
  95.7250        11
  95.7500        11
  95.7750         6
  95.8000         8
  95.8250         5
  95.8500         7
  95.8750         4
  95.9000         8
  95.9250        10
  95.9500         9
  95.9750         7
  96.0000         8
  96.0250        10
  96.0500         8
  96.0750         5
  96.1000         5
  96.1250         6
  96.1500         4
  96.1750         4
  96.2000         4
  96.2250         6
  96.2500         7
  96.2750         9
  96.3000         8
  96.3250         8
  96.3500         5
  96.3750         4
  96.4000         6
  96.4250         6
  96.4500         9
  96.4750         7
  96.5000         6
  96.5250         7
  96.5500        10
  96.5750         4
  96.6000        10
  96.6250         5
  96.6500         4
  96.6750         2
  96.7000         8
  96.7250        10
  96.7500         9
  96.7750        12
  96.8000        11
  96.8250         7
  96.8500         8
  96.8750         4
  96.9000         5
  96.9250         5
  96.9500         8
  96.9750         7
  97.0000        14
  97.0250        11
  97.0500         8
  97.0750         9
  97.1000        10
  97.1250         6
  97.1500         7
  97.1750         4
  97.2000         6
  97.2250         7
  97.2500         7
  97.2750        10
  97.3000         3
  97.3250         3
  97.3500         0
  97.3750         8
  97.4000         6
  97.4250        10
  97.4500        12
  97.4750        10
  97.5000         5
  97.5250        12
  97.5500         4
  97.5750         6
  97.6000        19
  97.6250         5
  97.6500         4
  97.6750         5
  97.7000         5
  97.7250         9
  97.7500         8
  97.7750        13
  97.8000         8
  97.8250         9
  97.8500        10
  97.8750        11
  97.9000         5
  97.9250         4
  97.9500         6
  97.9750         8
  98.0000         7
  98.0250        10
  98.0500         7
  98.0750         9
  98.1000         7
  98.1250         5
  98.1500         5
  98.1750         7
  98.2000         3
  98.2250         3
  98.2500         9
  98.2750         6
  98.3000         6
  98.3250        10
  98.3500         7
  98.3750         3
  98.4000         3
  98.4250         7
  98.4500         6
  98.4750         7
  98.5000         5
  98.5250         4
  98.5500         5
  98.5750         5
  98.6000         7
  98.6250        12
  98.6500         3
  98.6750         6
  98.7000         7
  98.7250         6
  98.7500         7
  98.7750         9
  98.8000         5
  98.8250         6
  98.8500         3
  98.8750         8
  98.9000         5
  98.9250         6
  98.9500         8
  98.9750         7
  99.0000         3
  99.0250         6
  99.0500         6
  99.0750        11
  99.1000         8
  99.1250         9
  99.1500         6
  99.1750         9
  99.2000        10
  99.2250        10
  99.2500         6
  99.2750        10
  99.3000         7
  99.3250         5
  99.3500         9
  99.3750        13
  99.4000        21
  99.4250        22
  99.4500        27
  99.4750        49
  99.5000        37
  99.5250        48
  99.5500        56
  99.5750        52
  99.6000        38
  99.6250        30
  99.6500        27
  99.6750        22
  99.7000        15
  99.7250        13
  99.7500        14
  99.7750        25
  99.8000        24
  99.8250        18
  99.8500        28
  99.8750        31
  99.9000        36
  99.9250        15
  99.9500        23
  99.9750        16
 100.0000         7
 100.0250        15
 100.0500        14
 100.0750        13
 100.1000         8
 100.1250         9
 100.1500         5
 100.1750         6
 100.2000         4
 100.2250        11
 100.2500         8
 100.2750         3
 100.3000         4
 100.3250         5
 100.3500         5
 100.3750         3
 100.4000         7
 100.4250         3
 100.4500         8
 100.4750         5
 100.5000         6
 100.5250         9
 100.5500        11
 100.5750         3
 100.6000         7
 100.6250         6
 100.6500         8
 100.6750         9
 100.7000        10
 100.7250         9
 100.7500         5
 100.7750         3
 100.8000         8
 100.8250         9
 100.8500        10
 100.8750         4
 100.9000         6
 100.9250         8
 100.9500         2
 100.9750         4
 101.0000         7
 101.0250         5
 101.0500         2
 101.0750         7
 101.1000         4
 101.1250         5
 101.1500         4
 101.1750         6
 101.2000         2
 101.2250         4
 101.2500         8
 101.2750         7
 101.3000         6
 101.3250         9
 101.3500         6
 101.3750         7
 101.4000         5
 101.4250         8
 101.4500         7
 101.4750         7
 101.5000         7
 101.5250         6
 101.5500         6
 101.5750         2
 101.6000         7
 101.6250         7
 101.6500         5
 101.6750        11
 101.7000         2
 101.7250         8
 101.7500         7
 101.7750         2
 101.8000         5
 101.8250         8
 101.8500         6
 101.8750        12
 101.9000         4
 101.9250         7
 101.9500         6
 101.9750         9
 102.0000         9
 102.0250         5
 102.0500         7
 102.0750         8
 102.1000         4
 102.1250         7
 102.1500         6
 102.1750         6
 102.2000         2
 102.2250         7
 102.2500         4
 102.2750         6
 102.3000         5
 102.3250         3
 102.3500         5
 102.3750         6
 102.4000         4
 102.4250         9
 102.4500         4
 102.4750         4
 102.5000         6
 102.5250        11
 102.5500         5
 102.5750         5
 102.6000         4
 102.6250         5
 102.6500         5
 102.6750         2
 102.7000         7
 102.7250        10
 102.7500         6
 102.7750         2
 102.8000        10
 102.8250         6
 102.8500         6
 102.8750         6
 102.9000         9
 102.9250         1
 102.9500         4
 102.9750         5
 103.0000         7
 103.0250         3
 103.0500         6
 103.0750         5
 103.1000         9
 103.1250         4
 103.1500         5
 103.1750         9
 103.2000        11
 103.2250         5
 103.2500         6
 103.2750         9
 103.3000        10
 103.3250         7
 103.3500        15
 103.3750        16
 103.4000        21
 103.4250         9
 103.4500        14
 103.4750         5
 103.5000         7
 103.5250         6
 103.5500         3
 103.5750         8
 103.6000         6
 103.6250         9
 103.6500         9
 103.6750        11
 103.7000        10
 103.7250         6
 103.7500        12
 103.7750        13
 103.8000        12
 103.8250         4
 103.8500         9
 103.8750         3
 103.9000        10
 103.9250         3
 103.9500         4
 103.9750         2
 104.0000         4
 104.0250         5
 104.0500         2
 104.0750         7
 104.1000         5
 104.1250         6
 104.1500         4
 104.1750         6
 104.2000         5
 104.2250         7
 104.2500         6
 104.2750         7
 104.3000        10
 104.3250         5
 104.3500         6
 104.3750         6
 104.4000         8
 104.4250         7
 104.4500         4
 104.4750         9
 104.5000         5
 104.5250         5
 104.5500         4
 104.5750         9
 104.6000         9
 104.6250         3
 104.6500        14
 104.6750         6
 104.7000         6
 104.7250         3
 104.7500         6
 104.7750        10
 104.8000         3
 104.8250         6
 104.8500         6
 104.8750         6
 104.9000         7
 104.9250         5
 104.9500         3
 104.9750         8
 105.0000        12
 105.0250         9
 105.0500         3
 105.0750         6
 105.1000         4
 105.1250         9
 105.1500         5
 105.1750         8
 105.2000         7
 105.2250         4
 105.2500         3
 105.2750         3
 105.3000        13
 105.3250         6
 105.3500        13
 105.3750         8
 105.4000         7
 105.4250         5
 105.4500         4
 105.4750         9
 105.5000         5
 105.5250         4
 105.5500         3
 105.5750         7
 105.6000         6
 105.6250         6
 105.6500         3
 105.6750         4
 105.7000         9
 105.7250         3
 105.7500         6
 105.7750         9
 105.8000         3
 105.8250         5
 105.8500         4
 105.8750         5
 105.9000         3
 105.9250         6
 105.9500         6
 105.9750         4
 106.0000         7
 106.0250         6
 106.0500         4
 106.0750         6
 106.1000         2
 106.1250         8
 106.1500         8
 106.1750         6
 106.2000         6
 106.2250         7
 106.2500         8
 106.2750         8
 106.3000         3
 106.3250         1
 106.3500         4
 106.3750         5
 106.4000         0
 106.4250         8
 106.4500        10
 106.4750         5
 106.5000         4
 106.5250         5
 106.5500         7
 106.5750        10
 106.6000         5
 106.6250        10
 106.6500         9
 106.6750         6
 106.7000         5
 106.7250         6
 106.7500         5
 106.7750         6
 106.8000         4
 106.8250         4
 106.8500         3
 106.8750         5
 106.9000         9
 106.9250         2
 106.9500         8
 106.9750         5
 107.0000         5
 107.0250         4
 107.0500        11
 107.0750         9
 107.1000         5
 107.1250         8
 107.1500         3
 107.1750         8
 107.2000         7
 107.2250         3
 107.2500         7
 107.2750         3
 107.3000         4
 107.3250         7
 107.3500        14
 107.3750         5
 107.4000         8
 107.4250         8
 107.4500         6
 107.4750         7
 107.5000         6
 107.5250         9
 107.5500         6
 107.5750         3
 107.6000         9
 107.6250         5
 107.6500        13
 107.6750         6
 107.7000         6
 107.7250         9
 107.7500         8
 107.7750         4
 107.8000         7
 107.8250        12
 107.8500        10
 107.8750         6
 107.9000        10
 107.9250        12
 107.9500        14
 107.9750        14
 108.0000        17
 108.0250        17
 108.0500        32
 108.0750        39
 108.1000        43
 108.1250        45
 108.1500        37
 108.1750        44
 108.2000        31
 108.2250        30
 108.2500        32
 108.2750        17
 108.3000        18
 108.3250        16
 108.3500        15
 108.3750        17
 108.4000        13
 108.4250        13
 108.4500        15
 108.4750        20
 108.5000        16
 108.5250        15
 108.5500        24
 108.5750        18
 108.6000        18
 108.6250        19
 108.6500        15
 108.6750         9
 108.7000        12
 108.7250         5
 108.7500        11
 108.7750         3
 108.8000         8
 108.8250         8
 108.8500         9
 108.8750        12
 108.9000         9
 108.9250         6
 108.9500        10
 108.9750         6
 109.0000         6
 109.0250        11
 109.0500         7
 109.0750         8
 109.1000        11
 109.1250         9
 109.1500        11
 109.1750         6
 109.2000         7
 109.2250         2
 109.2500         4
 109.2750         7
 109.3000         7
 109.3250         8
 109.3500         4
 109.3750         5
 109.4000         6
 109.4250         5
 109.4500         7
 109.4750         4
 109.5000         6
 109.5250         4
 109.5500         6
 109.5750         5
 109.6000        10
 109.6250         6
 109.6500         5
 109.6750         6
 109.7000         5
 109.7250        13
 109.7500         7
 109.7750         4
 109.8000         5
 109.8250         3
 109.8500        10
 109.8750         9
 109.9000         2
 109.9250         6
 109.9500         7
 109.9750        10
 110.0000         1
